386.542	-2.900
386.565	-2.400
386.587	-1.500
386.610	-3.600
386.632	-5.800
386.654	-5.600
386.677	-4.000
386.699	-2.900
386.721	-3.300
386.744	0.700
386.766	-5.100
386.789	-2.500
386.811	-2.300
386.833	-6.200
386.856	-0.400
386.878	-4.700
386.900	-2.300
386.923	-5.400
386.945	-2.700
386.968	1.500
386.990	-3.100
387.012	-2.300
387.035	-1.800
387.057	-0.700
387.079	-1.500
387.102	-3.900
387.124	-1.100
387.147	-3.800
387.169	-3.600
387.191	1.300
387.214	-1.800
387.236	-3.700
387.259	-1.600
387.281	-0.200
387.303	-4.100
387.326	-3.000
387.348	-0.700
387.370	1.000
387.393	-1.900
387.415	-0.700
387.438	-3.800
387.460	-3.600
387.482	-4.100
387.505	-0.400
387.527	-3.300
387.549	-3.400
387.572	-0.700
387.594	-6.600
387.617	-2.200
387.639	-3.600
387.661	-1.700
387.684	-2.100
387.706	-4.700
387.728	-5.100
387.751	-2.900
387.773	-1.500
387.796	-2.600
387.818	-3.200
387.840	1.100
387.863	-1.000
387.885	-4.800
387.907	-1.600
387.930	0.900
387.952	-1.100
387.975	-0.500
387.997	-0.500
388.019	2.200
388.042	-1.000
388.064	-1.100
388.086	-2.700
388.109	-1.600
388.131	-3.400
388.154	-3.000
388.176	-1.500
388.198	-0.200
388.221	-0.300
388.243	-0.600
388.266	-4.700
388.288	-0.700
388.310	-2.800
388.333	-1.800
388.355	-2.500
388.377	-0.900
388.400	-2.700
388.422	-4.500
388.445	-3.900
388.467	-3.500
388.489	-1.400
388.512	1.600
388.534	-1.600
388.556	-5.000
388.579	1.300
388.601	-2.300
388.624	-3.500
388.646	-3.200
388.668	-4.500
388.691	2.100
388.713	-2.300
388.735	-2.700
388.758	-2.400
388.780	-3.100
388.803	-4.900
388.825	-1.800
388.847	-2.200
388.870	-3.300
388.892	1.500
388.914	-2.700
388.937	-5.400
388.959	-1.200
388.982	-1.600
389.004	-3.900
389.026	-3.200
389.049	-2.100
389.071	-1.900
389.094	-4.800
389.116	-2.100
389.138	-0.800
389.161	-2.700
389.183	-0.400
389.205	-3.500
389.228	-4.300
389.250	-2.400
389.273	-5.600
389.295	-4.300
389.317	-2.900
389.340	-2.600
389.362	-3.400
389.384	-2.100
389.407	-4.800
389.429	-2.400
389.452	-2.000
389.474	-3.200
389.496	-2.300
389.519	-1.300
389.541	-1.100
389.563	-3.100
389.586	1.400
389.608	-0.200
389.631	-2.200
389.653	-3.100
389.675	-1.500
389.698	-1.000
389.720	-1.300
389.742	-0.700
389.765	-2.900
389.787	-4.600
389.810	-3.800
389.832	-2.500
389.854	-2.400
389.877	-4.600
389.899	1.200
389.922	-0.600
389.944	-1.500
389.966	-1.400
389.989	-1.300
390.011	-3.500
390.033	-5.200
390.056	-3.700
390.078	-5.900
390.101	-1.000
390.123	-2.500
390.145	-0.800
390.168	-2.400
390.190	0.400
390.212	-3.300
390.235	-2.100
390.257	-0.400
390.280	-2.400
390.302	-1.400
390.324	-3.300
390.347	-1.400
390.369	-1.600
390.391	-2.200
390.414	-3.700
390.436	-5.500
390.459	-2.500
390.481	-1.900
390.503	-2.800
390.526	-0.700
390.548	-2.000
390.570	-5.200
390.593	-3.300
390.615	-1.400
390.638	-2.700
390.660	-1.000
390.682	-1.300
390.705	-2.900
390.727	-1.900
390.749	-2.900
390.772	-3.200
390.794	-3.100
390.817	-5.600
390.839	-1.400
390.861	-1.700
390.884	-1.000
390.906	-6.400
390.928	-3.000
390.951	-4.800
390.973	-4.200
390.996	1.200
391.018	-0.700
391.040	-4.100
391.063	-3.500
391.085	-6.000
391.108	-4.500
391.130	-0.600
391.152	-3.000
391.175	-1.000
391.197	-1.700
391.219	1.400
391.242	-2.600
391.264	-1.400
391.287	-2.400
391.309	-4.400
391.331	-0.200
391.354	-2.000
391.376	-2.600
391.398	-3.200
391.421	-3.800
391.443	-3.500
391.466	-0.300
391.488	-5.900
391.510	-0.800
391.533	-4.400
391.555	1.800
391.577	-2.800
391.600	-4.700
391.622	-1.800
391.645	-3.300
391.667	-4.900
391.689	-1.700
391.712	-3.300
391.734	0.000
391.757	-6.800
391.779	-3.100
391.801	-0.400
391.824	-4.300
391.846	1.200
391.868	-2.900
391.891	-3.500
391.913	-5.600
391.936	-1.600
391.958	-3.600
391.980	-3.700
392.003	-2.900
392.025	-4.400
392.047	-2.100
392.070	-4.700
392.092	-6.300
392.115	-3.300
392.137	-3.800
392.159	-2.700
392.182	-5.100
392.204	-1.200
392.226	-3.400
392.249	0.500
392.271	-1.500
392.294	0.300
392.316	-1.200
392.338	-4.300
392.361	-3.100
392.383	-4.400
392.405	-4.800
392.428	-1.800
392.450	-4.200
392.473	-0.100
392.495	-8.200
392.517	-2.900
392.540	-1.600
392.562	-5.800
392.585	-2.200
392.607	-2.700
392.629	-2.700
392.652	-1.000
392.674	-8.000
392.696	-3.200
392.719	-1.900
392.741	-2.500
392.764	-3.600
392.786	-5.700
392.808	-6.600
392.831	-4.400
392.853	-1.900
392.875	-7.400
392.898	-3.400
392.920	-1.900
392.943	-6.200
392.965	-7.100
392.987	-6.200
393.010	-4.100
393.032	-7.900
393.054	-4.300
393.077	-3.900
393.099	-7.100
393.122	-4.400
393.144	-5.400
393.166	-2.800
393.189	-2.900
393.211	-8.700
393.233	-5.300
393.256	-8.500
393.278	-8.900
393.301	-4.400
393.323	-2.200
393.345	-3.000
393.368	-4.500
393.390	-1.500
393.412	-4.500
393.435	-7.400
393.457	-7.400
393.480	-8.000
393.502	-4.500
393.524	-9.300
393.547	-2.000
393.569	-5.600
393.592	-4.700
393.614	-4.900
393.636	-2.100
393.659	-8.900
393.681	-5.800
393.703	-4.000
393.726	-3.400
393.748	-4.200
393.771	-4.000
393.793	-1.300
393.815	-2.100
393.838	-8.000
393.860	-7.300
393.882	-7.400
393.905	-5.300
393.927	-7.800
393.950	-4.900
393.972	-6.000
393.994	-7.700
394.017	-3.200
394.039	-5.100
394.061	-8.200
394.084	7.900
394.106	23.100
394.129	37.200
394.151	12.700
394.173	-8.900
394.196	-17.700
394.218	-19.300
394.240	-16.100
394.263	-16.000
394.285	-17.200
394.308	-18.200
394.330	-19.200
394.352	-19.600
394.375	-16.800
394.397	-15.700
394.419	-24.400
394.442	-19.600
394.464	-20.800
394.487	-20.500
394.509	-34.100
394.531	-24.600
394.554	-28.700
394.576	-34.900
394.599	-34.300
394.621	-35.000
394.643	-28.900
394.666	-26.300
394.688	-47.900
394.710	-44.600
394.733	-35.200
394.755	-43.500
394.778	-30.600
394.800	-39.600
394.822	-44.900
394.845	-40.500
394.867	-50.000
394.889	-42.700
394.912	-39.000
394.934	-49.200
394.957	-41.700
394.979	-42.000
395.001	-41.200
395.024	-43.300
395.046	-36.800
395.068	-34.100
395.091	-50.300
395.113	-42.600
395.136	-40.600
395.158	-48.500
395.180	-48.300
395.203	-41.100
395.225	-43.500
395.247	-47.600
395.270	-39.200
395.292	-41.900
395.315	-43.900
395.337	-38.100
395.359	-42.100
395.382	-37.500
395.404	-41.800
395.427	-40.400
395.449	-31.700
395.471	-32.500
395.494	-28.400
395.516	-27.200
395.538	-20.600
395.561	-22.200
395.583	-28.900
395.606	-23.700
395.628	-14.400
395.650	-22.500
395.673	-22.400
395.695	-24.900
395.717	-26.600
395.740	-27.800
395.762	-24.800
395.785	-24.100
395.807	-23.800
395.829	-30.600
395.852	-30.900
395.874	-21.000
395.896	-24.500
395.919	-25.000
395.941	-20.800
395.964	-21.000
395.986	-23.200
396.008	-17.700
396.031	-23.000
396.053	-21.300
396.075	-21.000
396.098	-20.000
396.120	-21.700
396.143	-14.300
396.165	-17.200
396.187	-8.600
396.210	-19.400
396.232	-11.600
396.255	-20.800
396.277	-15.900
396.299	-16.500
396.322	-16.500
396.344	-20.000
396.366	-25.700
396.389	-22.100
396.411	-17.800
396.434	-16.000
396.456	-18.400
396.478	-25.000
396.501	-22.700
396.523	-29.400
396.545	-20.200
396.568	-21.000
396.590	-27.400
396.613	-21.000
396.635	-21.500
396.657	-23.000
396.680	-23.600
396.702	-22.900
396.724	-30.000
396.747	-33.700
396.769	-24.500
396.792	-27.800
396.814	-22.400
396.836	-31.000
396.859	-29.900
396.881	-20.400
396.903	-26.700
396.926	-23.000
396.948	-29.700
396.971	-25.600
396.993	-36.800
397.015	-31.200
397.038	-39.700
397.060	-30.800
397.082	-34.800
397.105	-31.100
397.127	-33.400
397.150	-32.500
397.172	-30.900
397.194	-32.500
397.217	-39.500
397.239	-42.100
397.262	-49.500
397.284	-42.100
397.306	-46.100
397.329	-48.200
397.351	-51.400
397.373	-50.200
397.396	-61.300
397.418	-67.400
397.441	-76.100
397.463	-73.500
397.485	-85.000
397.508	-124.300
397.530	-174.500
397.552	-224.700
397.575	-241.300
397.597	-249.200
397.620	-314.200
397.642	-320.400
397.664	-323.400
397.687	-338.600
397.709	-397.200
397.731	-435.400
397.754	-487.900
397.776	-552.400
397.799	-614.000
397.821	-768.100
397.843	-962.000
397.866	-1395.000
397.888	-1850.100
397.910	-3080.600
397.933	-4204.400
397.955	-3545.100
397.978	-2863.300
398.000	-3123.300
398.022	-4605.900
398.045	-40.800
398.067	0.000
398.090	0.000
398.112	0.000
398.134	0.000
398.157	0.000
398.179	0.000
398.201	-7961.500
398.224	-4377.500
398.246	-3566.500
398.269	-2901.200
398.291	-2107.600
398.313	-1220.600
398.336	-747.500
398.358	-613.300
398.380	-497.400
398.403	-434.600
398.425	-374.100
398.448	-303.000
398.470	-276.200
398.492	-225.400
398.515	-157.900
398.537	-113.100
398.559	-112.700
398.582	-100.500
398.604	-101.900
398.627	-104.300
398.649	-73.800
398.671	-59.800
398.694	-37.900
398.716	-41.900
398.738	-57.100
398.761	-59.100
398.783	-61.300
398.806	-51.100
398.828	-42.700
398.850	5.200
398.873	75.900
398.895	83.300
398.918	-14.100
398.940	-37.500
398.962	-33.700
398.985	-29.800
399.007	-12.200
399.029	105.400
399.052	275.100
399.074	248.000
399.097	32.400
399.119	-21.000
399.141	-25.700
399.164	-15.300
399.186	2.800
399.208	145.500
399.231	392.500
399.253	347.200
399.276	56.400
399.298	-8.000
399.320	-10.000
399.343	-10.500
399.365	30.300
399.387	162.600
399.410	455.000
399.432	380.800
399.455	69.700
399.477	-6.100
399.499	-10.500
399.522	-6.300
399.544	26.600
399.566	150.200
399.589	411.800
399.611	356.700
399.634	54.500
399.656	1.200
399.678	-3.100
399.701	-6.900
399.723	14.400
399.745	99.700
399.768	276.300
399.790	218.400
399.813	23.200
399.835	-5.300
399.857	-7.200
399.880	-9.700
399.902	2.900
399.925	59.500
399.947	193.300
399.969	171.400
399.992	22.900
400.014	-7.100
400.036	-4.100
400.059	-8.400
400.081	-1.600
400.104	20.200
400.126	90.900
400.148	80.200
400.171	5.100
400.193	-13.800
400.215	-19.100
400.238	-22.600
400.260	-16.800
400.283	3.000
400.305	49.900
400.327	22.600
400.350	-11.000
400.372	-19.900
400.394	-20.900
400.417	-17.100
400.439	-20.500
400.462	-7.300
400.484	50.600
400.506	44.400
400.529	-3.800
400.551	-20.700
400.573	-29.000
400.596	-27.900
400.618	-23.900
400.641	-17.400
400.663	-3.100
400.685	1.700
400.708	-28.100
400.730	-42.900
400.753	-39.800
400.775	-43.800
400.797	-36.300
400.820	-33.900
400.842	-20.300
400.864	-24.400
400.887	-35.300
400.909	-43.700
400.932	-37.700
400.954	-39.500
400.976	-31.600
400.999	-37.000
401.021	-31.900
401.043	-33.400
401.066	-36.400
401.088	-40.300
401.111	-31.200
401.133	-44.300
401.155	-39.400
401.178	-26.300
401.200	-13.900
401.222	-20.200
401.245	-34.400
401.267	-33.300
401.290	-38.900
401.312	-31.600
401.334	-34.000
401.357	-28.500
401.379	-10.400
401.401	-12.500
401.424	-24.100
401.446	-38.800
401.469	-35.600
401.491	-24.600
401.513	-29.500
401.536	-18.900
401.558	-19.300
401.581	-14.100
401.603	-19.900
401.625	-33.200
401.648	-25.800
401.670	-15.900
401.692	-19.900
401.715	-12.800
401.737	-2.300
401.760	-6.100
401.782	-10.700
401.804	-9.100
401.827	-4.000
401.849	-4.700
401.871	0.300
401.894	39.900
401.916	111.100
401.939	53.200
401.961	0.400
401.983	-2.300
402.006	-2.400
402.028	-0.900
402.050	25.100
402.073	96.800
402.095	156.400
402.118	66.300
402.140	20.000
402.162	25.200
402.185	45.900
402.207	167.000
402.229	1214.800
402.252	5381.600
402.274	7410.100
402.297	2177.100
402.319	197.800
402.341	43.200
402.364	25.400
402.386	37.400
402.408	175.800
402.431	626.500
402.453	661.600
402.476	157.600
402.498	19.700
402.520	11.200
402.543	9.300
402.565	4.400
402.588	11.200
402.610	20.100
402.632	11.900
402.655	5.200
402.677	2.200
402.699	1.500
402.722	0.200
402.744	1.900
402.767	-1.400
402.789	8.300
402.811	6.600
402.834	2.200
402.856	0.300
402.878	-0.700
402.901	2.100
402.923	2.900
402.946	11.800
402.968	21.300
402.990	4.800
403.013	0.600
403.035	1.200
403.057	1.700
403.080	-0.700
403.102	0.400
403.125	3.900
403.147	5.900
403.169	0.200
403.192	0.500
403.214	0.100
403.236	-0.500
403.259	-1.300
403.281	1.200
403.304	7.100
403.326	3.800
403.348	-1.300
403.371	0.500
403.393	0.200
403.415	0.500
403.438	-1.600
403.460	0.200
403.483	1.400
403.505	2.000
403.527	1.800
403.550	-0.200
403.572	1.600
403.595	-1.900
403.617	1.700
403.639	2.400
403.662	4.900
403.684	0.000
403.706	-2.000
403.729	-0.300
403.751	1.300
403.774	1.000
403.796	1.100
403.818	10.100
403.841	3.800
403.863	-0.100
403.885	-1.500
403.908	1.800
403.930	-0.800
403.953	2.800
403.975	7.800
403.997	14.600
404.020	5.600
404.042	1.000
404.064	0.600
404.087	0.100
404.109	1.800
404.132	7.600
404.154	23.300
404.176	14.800
404.199	4.000
404.221	0.400
404.243	0.000
404.266	1.000
404.288	3.600
404.311	13.300
404.333	17.900
404.355	7.500
404.378	1.000
404.400	-1.400
404.423	-0.900
404.445	1.500
404.467	10.300
404.490	25.900
404.512	22.400
404.534	2.300
404.557	-1.400
404.579	-1.100
404.602	1.100
404.624	2.300
404.646	20.900
404.669	30.500
404.691	12.700
404.713	0.600
404.736	-0.400
404.758	1.800
404.781	4.400
404.803	18.500
404.825	46.600
404.848	29.800
404.870	6.600
404.892	1.400
404.915	1.300
404.937	3.000
404.960	15.800
404.982	64.400
405.004	77.000
405.027	21.800
405.049	1.300
405.072	1.800
405.094	-0.200
405.116	7.600
405.139	43.500
405.161	80.000
405.183	35.900
405.206	5.600
405.228	2.900
405.251	3.400
405.273	5.600
405.295	34.700
405.318	81.600
405.340	50.500
405.362	9.300
405.385	3.700
405.407	1.700
405.430	3.600
405.452	19.500
405.474	63.100
405.497	54.100
405.519	12.600
405.541	2.400
405.564	1.900
405.586	4.100
405.609	16.200
405.631	67.300
405.653	72.800
405.676	20.500
405.698	2.900
405.720	0.600
405.743	2.400
405.765	13.500
405.788	55.400
405.810	71.800
405.832	22.500
405.855	3.000
405.877	-0.100
405.899	1.300
405.922	10.300
405.944	44.900
405.967	62.300
405.989	19.700
406.011	2.000
406.034	-0.200
406.056	-0.800
406.078	10.400
406.101	42.600
406.123	59.600
406.146	18.900
406.168	0.700
406.190	0.500
406.213	1.300
406.235	9.100
406.258	40.700
406.280	56.500
406.302	19.500
406.325	1.700
406.347	2.300
406.369	1.300
406.392	11.200
406.414	45.100
406.437	52.000
406.459	14.000
406.481	-0.800
406.504	-1.000
406.526	1.400
406.548	10.600
406.571	41.600
406.593	41.700
406.616	11.300
406.638	2.200
406.660	-0.900
406.683	1.900
406.705	13.200
406.727	39.700
406.750	28.700
406.772	5.500
406.795	0.100
406.817	-0.400
406.839	2.300
406.862	19.900
406.884	38.200
406.906	19.600
406.929	4.200
406.951	3.900
406.974	1.100
406.996	5.800
407.018	23.500
407.041	25.200
407.063	7.100
407.086	2.800
407.108	-0.800
407.130	2.500
407.153	7.000
407.175	16.900
407.197	13.900
407.220	0.700
407.242	3.500
407.265	0.500
407.287	0.200
407.309	7.600
407.332	13.300
407.354	4.800
407.376	1.200
407.399	0.800
407.421	0.200
407.444	3.700
407.466	5.300
407.488	4.900
407.511	0.800
407.533	-1.700
407.555	2.400
407.578	0.000
407.600	0.700
407.623	4.300
407.645	2.200
407.667	0.800
407.690	0.000
407.712	0.200
407.734	-0.300
407.757	1.100
407.779	1.200
407.802	-0.200
407.824	1.500
407.846	2.300
407.869	-0.500
407.891	0.700
407.914	-0.700
407.936	1.300
407.958	0.300
407.981	2.400
408.003	-0.900
408.025	2.400
408.048	1.500
408.070	1.500
408.093	0.700
408.115	1.000
408.137	-1.400
408.160	-2.300
408.182	-0.500
408.204	-0.300
408.227	-1.400
408.249	-0.400
408.272	1.100
408.294	-1.000
408.316	2.200
408.339	0.200
408.361	0.100
408.383	0.800
408.406	1.100
408.428	-1.100
408.451	0.000
408.473	0.500
408.495	0.700
408.518	0.000
408.540	-0.900
408.562	-0.700
408.585	1.600
408.607	-0.700
408.630	-1.500
408.652	-2.500
408.674	0.800
408.697	0.400
408.719	-0.100
408.741	0.000
408.764	1.200
408.786	-0.300
408.809	-1.100
408.831	-1.700
408.853	-1.700
408.876	-0.200
408.898	-0.200
408.921	-0.100
408.943	-1.200
408.965	1.900
408.988	-0.800
409.010	-3.300
409.032	-1.100
409.055	-1.900
409.077	-0.500
409.100	-0.200
409.122	-0.500
409.144	0.500
409.167	1.100
409.189	-1.900
409.211	-1.300
409.234	-0.900
409.256	0.900
409.279	-0.100
409.301	-0.400
409.323	-1.800
409.346	2.100
409.368	0.100
409.390	0.100
409.413	1.400
409.435	0.600
