386.542	-0.500
386.565	0.300
386.587	-1.100
386.610	-0.700
386.632	-2.100
386.654	-2.500
386.677	-2.000
386.699	-0.600
386.721	1.200
386.744	0.600
386.766	0.700
386.789	-1.200
386.811	-0.500
386.833	-0.600
386.856	0.900
386.878	2.900
386.900	-0.400
386.923	2.000
386.945	-1.500
386.968	-1.500
386.990	-1.400
387.012	-1.200
387.035	-1.000
387.057	2.600
387.079	-3.700
387.102	-0.900
387.124	-1.100
387.147	-3.200
387.169	2.200
387.191	-1.200
387.214	-0.100
387.236	-1.000
387.259	-4.000
387.281	0.500
387.303	-1.800
387.326	2.000
387.348	-0.900
387.370	-5.000
387.393	-0.800
387.415	1.600
387.438	-4.300
387.460	-1.800
387.482	-0.400
387.505	-1.500
387.527	-2.000
387.549	0.200
387.572	1.300
387.594	-3.800
387.617	-0.300
387.639	-3.200
387.661	-0.500
387.684	-1.500
387.706	-2.700
387.728	1.200
387.751	-2.900
387.773	-2.800
387.796	-3.300
387.818	0.700
387.840	0.300
387.863	1.400
387.885	-0.400
387.907	-3.000
387.930	-1.100
387.952	-4.100
387.975	2.200
387.997	-3.800
388.019	-3.000
388.042	-5.100
388.064	-1.300
388.086	1.100
388.109	-1.900
388.131	-0.900
388.154	-2.100
388.176	-0.800
388.198	-0.500
388.221	1.600
388.243	-2.600
388.266	-2.500
388.288	-2.200
388.310	-0.200
388.333	-2.100
388.355	-2.300
388.377	1.200
388.400	0.100
388.422	-0.800
388.445	-0.200
388.467	-0.300
388.489	-0.400
388.512	-0.300
388.534	1.100
388.556	-1.900
388.579	0.600
388.601	0.700
388.624	3.200
388.646	-2.100
388.668	-1.300
388.691	-0.600
388.713	-4.300
388.735	-1.200
388.758	0.500
388.780	0.300
388.803	1.300
388.825	-3.700
388.847	3.000
388.870	0.800
388.892	-0.300
388.914	-1.100
388.937	-2.300
388.959	-1.300
388.982	-2.000
389.004	0.300
389.026	-0.800
389.049	-1.900
389.071	-0.400
389.094	1.900
389.116	-1.200
389.138	0.600
389.161	-0.200
389.183	-0.600
389.205	-3.000
389.228	-0.300
389.250	-0.300
389.273	-2.800
389.295	-1.300
389.317	-3.200
389.340	-0.800
389.362	-1.900
389.384	1.700
389.407	0.000
389.429	-0.500
389.452	0.000
389.474	-3.600
389.496	1.000
389.519	1.100
389.541	-2.300
389.563	1.300
389.586	-0.800
389.608	-4.700
389.631	-3.200
389.653	1.500
389.675	0.700
389.698	-3.500
389.720	2.200
389.742	-0.500
389.765	-1.100
389.787	-2.900
389.810	-1.800
389.832	-1.800
389.854	1.200
389.877	-2.100
389.899	-0.100
389.922	0.700
389.944	0.400
389.966	0.400
389.989	-4.200
390.011	2.000
390.033	0.800
390.056	-3.900
390.078	-4.600
390.101	-1.800
390.123	1.000
390.145	-3.300
390.168	-2.300
390.190	-1.900
390.212	1.200
390.235	2.600
390.257	0.900
390.280	-3.800
390.302	0.500
390.324	-1.100
390.347	-4.700
390.369	0.100
390.391	-2.300
390.414	-2.400
390.436	-3.800
390.459	-2.200
390.481	0.400
390.503	-1.400
390.526	-1.400
390.548	1.000
390.570	1.300
390.593	-0.600
390.615	1.500
390.638	-0.100
390.660	0.700
390.682	-1.900
390.705	-1.400
390.727	1.200
390.749	-2.000
390.772	0.600
390.794	1.300
390.817	0.100
390.839	1.500
390.861	0.000
390.884	-0.700
390.906	-1.800
390.928	0.600
390.951	-1.800
390.973	0.300
390.996	-1.500
391.018	-2.100
391.040	-2.200
391.063	0.200
391.085	0.300
391.108	-2.000
391.130	0.500
391.152	-2.200
391.175	0.100
391.197	-1.200
391.219	-3.100
391.242	-1.400
391.264	-0.600
391.287	-1.300
391.309	0.700
391.331	-1.800
391.354	-1.200
391.376	-0.500
391.398	-2.000
391.421	-2.800
391.443	-1.500
391.466	0.300
391.488	1.000
391.510	0.900
391.533	-4.100
391.555	-0.600
391.577	0.000
391.600	-2.400
391.622	-2.300
391.645	-2.900
391.667	0.600
391.689	-0.900
391.712	-1.300
391.734	-2.900
391.757	0.400
391.779	0.800
391.801	-0.800
391.824	-4.000
391.846	2.800
391.868	-2.200
391.891	-0.800
391.913	-1.800
391.936	0.200
391.958	-5.300
391.980	-1.900
392.003	-3.200
392.025	-1.300
392.047	0.200
392.070	0.400
392.092	-1.800
392.115	-0.800
392.137	-3.600
392.159	0.400
392.182	0.300
392.204	-1.100
392.226	-0.600
392.249	0.800
392.271	-2.600
392.294	-1.200
392.316	-4.900
392.338	-8.800
392.361	4.100
392.383	-1.000
392.405	-2.500
392.428	-0.900
392.450	-1.100
392.473	-1.000
392.495	-4.000
392.517	-1.500
392.540	1.300
392.562	-4.900
392.585	0.200
392.607	-0.200
392.629	-3.400
392.652	-4.200
392.674	0.000
392.696	-1.600
392.719	2.100
392.741	-1.500
392.764	-1.000
392.786	-0.500
392.808	-0.400
392.831	-1.900
392.853	0.000
392.875	0.400
392.898	-1.500
392.920	-7.000
392.943	-1.000
392.965	-0.100
392.987	-1.400
393.010	-1.000
393.032	-0.100
393.054	-1.400
393.077	1.000
393.099	-5.700
393.122	-0.400
393.144	-1.100
393.166	-4.600
393.189	-4.900
393.211	0.900
393.233	-0.600
393.256	0.900
393.278	3.500
393.301	1.500
393.323	1.500
393.345	-1.500
393.368	0.700
393.390	-0.800
393.412	-0.400
393.435	-2.300
393.457	0.000
393.480	0.600
393.502	-1.300
393.524	-1.100
393.547	-2.400
393.569	-0.200
393.592	-0.900
393.614	-1.900
393.636	1.800
393.659	0.200
393.681	-1.600
393.703	-4.400
393.726	-2.700
393.748	-2.800
393.771	-3.000
393.793	-4.200
393.815	-1.100
393.838	-4.200
393.860	-4.800
393.882	-4.300
393.905	-2.400
393.927	-5.400
393.950	-0.900
393.972	-0.800
393.994	-2.800
394.017	0.900
394.039	-4.300
394.061	0.900
394.084	14.200
394.106	32.200
394.129	27.200
394.151	7.200
394.173	-5.100
394.196	-4.600
394.218	-2.800
394.240	-1.800
394.263	4.000
394.285	-2.100
394.308	-2.900
394.330	-6.500
394.352	-7.100
394.375	-7.300
394.397	-2.800
394.419	-4.400
394.442	-5.300
394.464	-0.900
394.487	-7.600
394.509	-7.900
394.531	-9.500
394.554	-8.800
394.576	-2.100
394.599	-13.700
394.621	-9.000
394.643	-8.200
394.666	-10.100
394.688	2.100
394.710	-12.500
394.733	-7.700
394.755	-8.800
394.778	-14.600
394.800	-7.900
394.822	-7.700
394.845	-18.000
394.867	-20.800
394.889	-12.700
394.912	-8.900
394.934	-8.400
394.957	-16.500
394.979	-3.200
395.001	-9.100
395.024	-11.900
395.046	-17.900
395.068	-13.600
395.091	-13.700
395.113	-19.600
395.136	-10.200
395.158	-4.300
395.180	-15.700
395.203	-12.100
395.225	-7.700
395.247	-9.800
395.270	-12.400
395.292	-6.800
395.315	-13.300
395.337	-11.400
395.359	-9.300
395.382	-8.600
395.404	-6.100
395.427	-17.100
395.449	-12.800
395.471	-6.800
395.494	-1.100
395.516	-12.400
395.538	-9.400
395.561	-4.300
395.583	-6.700
395.606	-5.700
395.628	-3.700
395.650	-7.500
395.673	-9.500
395.695	-4.600
395.717	-7.300
395.740	-2.800
395.762	5.200
395.785	-8.300
395.807	-4.100
395.829	-7.200
395.852	-9.500
395.874	-13.700
395.896	-13.700
395.919	-9.400
395.941	-9.000
395.964	-10.000
395.986	-9.400
396.008	-12.000
396.031	-2.900
396.053	-6.200
396.075	-15.800
396.098	-8.000
396.120	-4.400
396.143	-4.200
396.165	-2.400
396.187	-9.400
396.210	-3.300
396.232	-0.900
396.255	-1.600
396.277	-6.200
396.299	-6.500
396.322	-7.300
396.344	-4.300
396.366	-9.300
396.389	-6.700
396.411	-5.400
396.434	-8.800
396.456	-5.500
396.478	-3.600
396.501	-5.600
396.523	-2.700
396.545	-7.100
396.568	-5.000
396.590	-5.300
396.613	-1.100
396.635	-3.200
396.657	-4.800
396.680	-8.600
396.702	-5.900
396.724	-5.000
396.747	-6.500
396.769	-1.700
396.792	2.000
396.814	-4.700
396.836	-3.500
396.859	3.600
396.881	-4.500
396.903	-11.400
396.926	-14.500
396.948	-4.100
396.971	-7.800
396.993	-8.400
397.015	-2.500
397.038	-4.100
397.060	-6.500
397.082	-17.700
397.105	-3.100
397.127	-3.500
397.150	-5.600
397.172	-5.500
397.194	1.300
397.217	-15.400
397.239	-13.900
397.262	-6.500
397.284	-23.000
397.306	-18.900
397.329	-15.100
397.351	-13.900
397.373	-19.400
397.396	-30.300
397.418	-32.300
397.441	-29.700
397.463	-41.700
397.485	-27.200
397.508	-44.900
397.530	-40.900
397.552	-62.300
397.575	-78.100
397.597	-89.600
397.620	-95.200
397.642	-104.400
397.664	-107.800
397.687	-86.700
397.709	-35.100
397.731	-72.200
397.754	-84.500
397.776	-137.800
397.799	-68.100
397.821	-114.900
397.843	-141.800
397.866	-264.500
397.888	-502.100
397.910	-1338.400
397.933	-2273.000
397.955	-1726.800
397.978	-789.700
398.000	-284.700
398.022	-286.100
398.045	-11.200
398.067	0.000
398.090	0.000
398.112	0.000
398.134	0.000
398.157	0.000
398.179	0.000
398.201	-2835.800
398.224	-1425.400
398.246	-786.600
398.269	-760.100
398.291	-651.700
398.313	-453.900
398.336	-282.800
398.358	-256.200
398.380	-191.600
398.403	-132.700
398.425	-126.000
398.448	-59.900
398.470	-71.600
398.492	-63.300
398.515	-57.600
398.537	-23.600
398.559	-37.200
398.582	-37.800
398.604	-23.800
398.627	-14.400
398.649	-11.000
398.671	5.800
398.694	5.100
398.716	15.200
398.738	-9.900
398.761	-19.600
398.783	-12.500
398.806	-14.100
398.828	-5.300
398.850	40.200
398.873	124.900
398.895	129.800
398.918	16.200
398.940	0.500
398.962	0.000
398.985	-2.800
399.007	26.600
399.029	129.000
399.052	308.400
399.074	267.600
399.097	53.900
399.119	1.100
399.141	-2.900
399.164	9.100
399.186	36.100
399.208	181.100
399.231	429.300
399.253	347.100
399.276	65.200
399.298	6.500
399.320	3.700
399.343	9.400
399.365	37.100
399.387	195.800
399.410	480.100
399.432	374.700
399.455	78.500
399.477	9.300
399.499	3.800
399.522	8.500
399.544	51.700
399.566	171.900
399.589	418.400
399.611	346.200
399.634	65.400
399.656	8.100
399.678	-3.900
399.701	5.200
399.723	27.900
399.745	111.700
399.768	277.800
399.790	200.700
399.813	28.800
399.835	3.000
399.857	3.200
399.880	5.900
399.902	10.900
399.925	68.000
399.947	189.200
399.969	158.300
399.992	35.000
400.014	0.500
400.036	3.500
400.059	6.300
400.081	2.800
400.104	33.000
400.126	92.300
400.148	81.900
400.171	20.200
400.193	-7.300
400.215	-11.300
400.238	-6.500
400.260	2.000
400.283	20.500
400.305	46.600
400.327	37.400
400.350	-5.500
400.372	-7.600
400.394	-3.600
400.417	-5.400
400.439	-11.400
400.462	7.200
400.484	51.000
400.506	53.100
400.529	7.700
400.551	2.900
400.573	-6.900
400.596	-9.300
400.618	-14.500
400.641	1.300
400.663	15.900
400.685	10.700
400.708	2.800
400.730	-10.700
400.753	-9.400
400.775	-7.600
400.797	-0.800
400.820	0.600
400.842	-8.300
400.864	3.500
400.887	-9.400
400.909	-14.300
400.932	-14.000
400.954	-13.800
400.976	-20.400
400.999	-11.900
401.021	-3.000
401.043	-0.400
401.066	-7.100
401.088	-8.900
401.111	-7.100
401.133	-10.400
401.155	-16.700
401.178	-0.400
401.200	0.900
401.222	-1.000
401.245	-13.800
401.267	-14.100
401.290	-18.300
401.312	-11.600
401.334	-11.200
401.357	-9.100
401.379	1.600
401.401	3.400
401.424	-5.000
401.446	-9.500
401.469	-4.800
401.491	-9.700
401.513	-7.800
401.536	1.200
401.558	5.300
401.581	-2.000
401.603	-6.600
401.625	-5.000
401.648	-5.600
401.670	-5.300
401.692	-4.800
401.715	4.400
401.737	13.300
401.760	3.400
401.782	-3.100
401.804	4.600
401.827	5.200
401.849	0.400
401.871	17.600
401.894	43.500
401.916	54.800
401.939	22.300
401.961	9.400
401.983	12.400
402.006	13.400
402.028	47.200
402.050	208.700
402.073	941.500
402.095	1430.800
402.118	532.300
402.140	74.900
402.162	45.400
402.185	55.600
402.207	151.600
402.229	947.800
402.252	3797.300
402.274	4766.500
402.297	1376.800
402.319	156.600
402.341	52.500
402.364	36.700
402.386	38.000
402.408	107.800
402.431	284.300
402.453	246.800
402.476	57.900
402.498	8.600
402.520	6.300
402.543	8.700
402.565	9.000
402.588	4.000
402.610	8.600
402.632	9.000
402.655	5.100
402.677	3.600
402.699	2.300
402.722	0.300
402.744	1.800
402.767	4.700
402.789	-0.200
402.811	2.100
402.834	1.500
402.856	1.300
402.878	0.800
402.901	2.700
402.923	-0.600
402.946	-0.300
402.968	-1.200
402.990	2.300
403.013	-0.500
403.035	-0.200
403.057	0.600
403.080	2.000
403.102	1.800
403.125	-0.900
403.147	2.900
403.169	0.300
403.192	0.500
403.214	-1.800
403.236	0.200
403.259	1.600
403.281	-0.300
403.304	0.600
403.326	-0.600
403.348	0.600
403.371	1.300
403.393	-1.400
403.415	-1.900
403.438	-0.700
403.460	-1.600
403.483	1.500
403.505	1.500
403.527	-0.500
403.550	-1.600
403.572	-2.000
403.595	-0.600
403.617	-1.500
403.639	-0.500
403.662	-1.200
403.684	2.500
403.706	0.700
403.729	-0.400
403.751	0.700
403.774	-2.000
403.796	-0.300
403.818	0.200
403.841	0.100
403.863	-0.300
403.885	-0.200
403.908	0.300
403.930	-1.900
403.953	0.100
403.975	3.300
403.997	2.200
404.020	1.200
404.042	-0.100
404.064	2.000
404.087	-0.400
404.109	-0.500
404.132	2.300
404.154	2.300
404.176	3.600
404.199	-0.400
404.221	-0.100
404.243	0.400
404.266	0.000
404.288	-0.300
404.311	0.900
404.333	4.700
404.355	4.100
404.378	1.900
404.400	1.700
404.423	1.800
404.445	0.700
404.467	0.100
404.490	1.100
404.512	3.700
404.534	1.600
404.557	2.200
404.579	1.100
404.602	-2.800
404.624	2.000
404.646	1.800
404.669	4.700
404.691	1.800
404.713	3.800
404.736	0.000
404.758	1.400
404.781	3.100
404.803	3.200
404.825	5.100
404.848	3.800
404.870	0.800
404.892	1.400
404.915	0.200
404.937	0.000
404.960	1.100
404.982	6.800
405.004	9.200
405.027	3.500
405.049	1.900
405.072	1.600
405.094	-0.900
405.116	1.000
405.139	7.400
405.161	12.000
405.183	5.000
405.206	0.400
405.228	-0.100
405.251	0.000
405.273	2.100
405.295	8.100
405.318	16.900
405.340	9.800
405.362	1.700
405.385	-0.200
405.407	0.700
405.430	0.800
405.452	5.600
405.474	16.800
405.497	13.900
405.519	1.600
405.541	-1.000
405.564	0.900
405.586	-1.400
405.609	6.200
405.631	26.200
405.653	25.400
405.676	5.400
405.698	1.100
405.720	-1.200
405.743	2.400
405.765	8.000
405.788	28.400
405.810	33.800
405.832	11.500
405.855	3.000
405.877	0.400
405.899	-1.100
405.922	6.500
405.944	34.400
405.967	41.800
405.989	11.900
406.011	0.700
406.034	1.100
406.056	-0.700
406.078	10.600
406.101	44.700
406.123	55.700
406.146	17.300
406.168	1.100
406.190	2.500
406.213	2.300
406.235	12.400
406.258	48.000
406.280	59.300
406.302	18.000
406.325	2.500
406.347	1.200
406.369	3.700
406.392	15.900
406.414	61.700
406.437	66.300
406.459	18.100
406.481	1.900
406.504	1.000
406.526	1.700
406.548	18.400
406.571	58.300
406.593	54.000
406.616	13.200
406.638	1.300
406.660	3.500
406.683	3.800
406.705	24.900
406.727	54.300
406.750	36.000
406.772	7.000
406.795	2.800
406.817	1.600
406.839	5.000
406.862	27.400
406.884	49.500
406.906	21.600
406.929	3.000
406.951	1.000
406.974	2.600
406.996	10.000
407.018	28.300
407.041	31.800
407.063	9.800
407.086	4.700
407.108	1.400
407.130	1.600
407.153	8.100
407.175	18.400
407.197	15.200
407.220	2.100
407.242	1.100
407.265	1.000
407.287	5.100
407.309	9.000
407.332	11.000
407.354	6.000
407.376	1.400
407.399	0.100
407.421	0.500
407.444	4.300
407.466	4.000
407.488	4.200
407.511	-0.200
407.533	1.000
407.555	0.200
407.578	1.300
407.600	2.500
407.623	2.200
407.645	-0.500
407.667	2.200
407.690	0.200
407.712	0.900
407.734	2.100
407.757	-0.500
407.779	0.400
407.802	-1.100
407.824	-0.200
407.846	0.800
407.869	0.700
407.891	-0.200
407.914	0.100
407.936	0.500
407.958	-0.700
407.981	-0.600
408.003	-0.200
408.025	-1.400
408.048	0.000
408.070	0.300
408.093	0.900
408.115	0.200
408.137	0.000
408.160	0.500
408.182	-0.500
408.204	1.000
408.227	0.500
408.249	-1.400
408.272	2.400
408.294	-1.200
408.316	-1.500
408.339	1.000
408.361	0.900
408.383	-0.300
408.406	0.200
408.428	1.600
408.451	0.300
408.473	0.900
408.495	-0.100
408.518	-0.200
408.540	2.700
408.562	0.800
408.585	0.700
408.607	0.500
408.630	-1.200
408.652	-0.400
408.674	0.700
408.697	-0.300
408.719	1.300
408.741	1.600
408.764	0.300
408.786	-0.900
408.809	1.100
408.831	1.200
408.853	1.300
408.876	0.000
408.898	1.700
408.921	1.300
408.943	-0.700
408.965	1.200
408.988	1.100
409.010	0.700
409.032	-0.200
409.055	-0.700
409.077	2.000
409.100	-1.000
409.122	1.000
409.144	-0.100
409.167	-2.000
409.189	1.000
409.211	0.500
409.234	-0.900
409.256	-1.100
409.279	0.200
409.301	-1.700
409.323	0.300
409.346	1.100
409.368	0.200
409.390	-0.100
409.413	-0.200
409.435	-1.000
