386.542	-0.900
386.565	-0.600
386.587	0.900
386.610	-1.100
386.632	-1.800
386.654	-2.700
386.677	-2.200
386.699	-1.600
386.721	-2.000
386.744	-0.500
386.766	1.800
386.789	0.500
386.811	0.600
386.833	0.100
386.856	-0.400
386.878	0.800
386.900	-2.100
386.923	-3.000
386.945	-1.800
386.968	-1.300
386.990	-1.900
387.012	-2.400
387.035	-1.500
387.057	-0.600
387.079	-0.700
387.102	-2.400
387.124	-1.700
387.147	-1.000
387.169	0.200
387.191	1.500
387.214	1.700
387.236	-1.300
387.259	-1.200
387.281	-0.300
387.303	-0.900
387.326	-2.500
387.348	-2.900
387.370	0.000
387.393	-0.100
387.415	0.800
387.438	-3.200
387.460	0.400
387.482	-3.000
387.505	0.400
387.527	-1.300
387.549	-0.900
387.572	-1.400
387.594	-2.700
387.617	-2.300
387.639	-3.000
387.661	-0.400
387.684	-2.100
387.706	-2.100
387.728	-0.400
387.751	-1.100
387.773	-2.400
387.796	-0.400
387.818	-3.400
387.840	-0.700
387.863	-0.200
387.885	-0.700
387.907	1.100
387.930	0.200
387.952	2.100
387.975	-1.200
387.997	-2.700
388.019	1.100
388.042	-2.400
388.064	1.700
388.086	-1.200
388.109	-0.300
388.131	-1.500
388.154	2.200
388.176	-2.400
388.198	0.800
388.221	-1.300
388.243	-2.700
388.266	-1.600
388.288	0.000
388.310	-1.200
388.333	0.500
388.355	-1.200
388.377	2.300
388.400	0.600
388.422	-0.400
388.445	-1.700
388.467	0.200
388.489	0.700
388.512	-3.000
388.534	-0.700
388.556	-0.400
388.579	-1.100
388.601	-0.300
388.624	-1.900
388.646	-0.400
388.668	-0.800
388.691	-1.200
388.713	-3.200
388.735	-2.300
388.758	-1.300
388.780	-0.700
388.803	-0.800
388.825	-2.700
388.847	-1.900
388.870	-1.600
388.892	-1.000
388.914	0.400
388.937	-2.100
388.959	-0.200
388.982	-1.400
389.004	-1.000
389.026	0.200
389.049	-1.600
389.071	-1.300
389.094	-1.700
389.116	-1.300
389.138	-3.800
389.161	-0.800
389.183	-3.400
389.205	-0.700
389.228	-1.100
389.250	-2.800
389.273	-1.600
389.295	-1.800
389.317	-1.900
389.340	-2.300
389.362	-4.900
389.384	0.700
389.407	-3.900
389.429	0.100
389.452	-4.300
389.474	-1.800
389.496	-1.800
389.519	-1.700
389.541	-0.200
389.563	-0.600
389.586	-0.700
389.608	-1.500
389.631	-1.400
389.653	-1.200
389.675	-1.300
389.698	-2.300
389.720	-0.600
389.742	0.400
389.765	0.300
389.787	-1.700
389.810	-1.200
389.832	-1.500
389.854	-4.100
389.877	-0.800
389.899	-1.300
389.922	1.000
389.944	-0.500
389.966	-2.300
389.989	-0.700
390.011	-3.400
390.033	-0.800
390.056	-1.900
390.078	-3.200
390.101	-1.600
390.123	-1.100
390.145	0.100
390.168	-1.600
390.190	-1.700
390.212	-1.700
390.235	-1.100
390.257	-2.700
390.280	-2.900
390.302	-4.200
390.324	0.200
390.347	-0.700
390.369	-2.600
390.391	0.100
390.414	0.200
390.436	-2.000
390.459	-3.000
390.481	-2.600
390.503	0.300
390.526	-2.700
390.548	-2.800
390.570	-5.000
390.593	1.600
390.615	0.300
390.638	-0.400
390.660	-2.300
390.682	-2.600
390.705	-1.500
390.727	-1.000
390.749	-2.200
390.772	-0.100
390.794	-3.200
390.817	-0.800
390.839	-0.500
390.861	-3.200
390.884	-0.300
390.906	0.300
390.928	-2.800
390.951	-0.900
390.973	-1.700
390.996	-1.900
391.018	-4.000
391.040	-1.400
391.063	0.000
391.085	-2.600
391.108	-1.200
391.130	2.700
391.152	-1.900
391.175	-1.500
391.197	-0.900
391.219	1.500
391.242	-0.300
391.264	-5.100
391.287	0.700
391.309	-2.700
391.331	1.900
391.354	0.400
391.376	-1.000
391.398	-0.100
391.421	0.100
391.443	-2.400
391.466	-1.500
391.488	-0.100
391.510	-1.800
391.533	-2.400
391.555	-0.100
391.577	-2.100
391.600	-0.500
391.622	-1.100
391.645	-1.900
391.667	0.300
391.689	-0.900
391.712	-1.300
391.734	-1.800
391.757	-1.300
391.779	-0.600
391.801	-1.400
391.824	0.000
391.846	-1.200
391.868	-0.600
391.891	-0.400
391.913	-0.900
391.936	-0.500
391.958	-0.800
391.980	-4.500
392.003	-0.200
392.025	-1.900
392.047	0.500
392.070	1.000
392.092	-4.900
392.115	-0.900
392.137	-3.200
392.159	-0.400
392.182	-0.200
392.204	-1.500
392.226	-1.100
392.249	-1.100
392.271	-2.600
392.294	-1.500
392.316	-2.500
392.338	1.100
392.361	-1.500
392.383	1.700
392.405	0.200
392.428	0.200
392.450	0.200
392.473	-1.600
392.495	-4.800
392.517	-3.200
392.540	-2.300
392.562	-0.100
392.585	-2.700
392.607	-0.700
392.629	-1.000
392.652	-2.800
392.674	0.500
392.696	0.800
392.719	-1.200
392.741	-2.100
392.764	-0.400
392.786	-0.900
392.808	0.500
392.831	1.200
392.853	-3.400
392.875	-2.100
392.898	-4.300
392.920	-1.800
392.943	0.600
392.965	-3.600
392.987	-3.300
393.010	0.000
393.032	-2.000
393.054	-2.500
393.077	0.600
393.099	-1.600
393.122	1.200
393.144	0.000
393.166	0.200
393.189	0.400
393.211	-0.600
393.233	-0.800
393.256	-1.900
393.278	-3.600
393.301	-3.100
393.323	-3.500
393.345	-3.200
393.368	-0.200
393.390	-4.100
393.412	-2.800
393.435	-0.300
393.457	-0.400
393.480	-1.900
393.502	-1.700
393.524	1.400
393.547	-1.900
393.569	-2.600
393.592	-3.300
393.614	-1.300
393.636	-1.600
393.659	-0.100
393.681	-3.600
393.703	0.300
393.726	-3.100
393.748	-0.800
393.771	-4.900
393.793	-0.400
393.815	-4.400
393.838	-6.600
393.860	-2.700
393.882	-0.100
393.905	-0.900
393.927	-1.200
393.950	-0.300
393.972	1.600
393.994	-3.900
394.017	-5.000
394.039	-0.900
394.061	-4.900
394.084	-2.600
394.106	-1.900
394.129	-2.700
394.151	-4.000
394.173	-0.600
394.196	-1.600
394.218	-2.900
394.240	-1.000
394.263	-4.500
394.285	-5.900
394.308	-6.200
394.330	-2.600
394.352	-6.900
394.375	-0.400
394.397	-4.600
394.419	-2.700
394.442	-5.000
394.464	-0.700
394.487	4.000
394.509	-1.100
394.531	4.700
394.554	1.800
394.576	2.000
394.599	-1.100
394.621	3.100
394.643	2.200
394.666	0.200
394.688	4.700
394.710	-4.800
394.733	7.300
394.755	-0.800
394.778	6.000
394.800	3.600
394.822	2.800
394.845	1.100
394.867	-2.800
394.889	-8.100
394.912	0.000
394.934	-1.000
394.957	-1.300
394.979	-3.600
395.001	1.800
395.024	-8.400
395.046	-9.100
395.068	-10.100
395.091	-0.700
395.113	-9.700
395.136	-11.700
395.158	-6.800
395.180	-2.000
395.203	-12.600
395.225	-5.600
395.247	-9.500
395.270	-4.900
395.292	-6.400
395.315	-6.200
395.337	-6.500
395.359	-5.700
395.382	-8.800
395.404	-5.400
395.427	-5.500
395.449	-3.100
395.471	-11.500
395.494	-5.300
395.516	-3.500
395.538	-0.200
395.561	0.800
395.583	5.800
395.606	0.900
395.628	-7.700
395.650	1.000
395.673	-3.000
395.695	6.200
395.717	-1.800
395.740	-3.100
395.762	0.600
395.785	-2.700
395.807	-1.600
395.829	-1.300
395.852	1.400
395.874	-1.600
395.896	-0.900
395.919	5.700
395.941	1.900
395.964	-0.100
395.986	-3.300
396.008	-1.400
396.031	-5.200
396.053	2.000
396.075	0.200
396.098	2.200
396.120	-3.500
396.143	-6.500
396.165	-6.100
396.187	-3.400
396.210	-2.700
396.232	-1.200
396.255	-0.200
396.277	1.300
396.299	-2.500
396.322	1.100
396.344	-1.900
396.366	0.600
396.389	1.200
396.411	-6.500
396.434	-1.400
396.456	1.800
396.478	-4.100
396.501	-1.300
396.523	-3.600
396.545	0.600
396.568	-4.600
396.590	-6.900
396.613	-2.200
396.635	-3.100
396.657	-1.900
396.680	-6.300
396.702	-6.800
396.724	-7.300
396.747	-4.300
396.769	-5.500
396.792	-3.200
396.814	-3.300
396.836	-2.400
396.859	-4.900
396.881	-6.200
396.903	-0.900
396.926	-0.200
396.948	-4.700
396.971	2.100
396.993	1.600
397.015	3.400
397.038	-9.300
397.060	2.700
397.082	0.600
397.105	0.200
397.127	-8.500
397.150	-15.600
397.172	-13.300
397.194	-7.400
397.217	-7.100
397.239	-26.400
397.262	-34.700
397.284	-11.700
397.306	3.300
397.329	-1.800
397.351	-4.900
397.373	-11.800
397.396	-15.000
397.418	0.700
397.441	8.500
397.463	27.100
397.485	39.500
397.508	49.000
397.530	48.100
397.552	25.500
397.575	15.700
397.597	26.700
397.620	34.600
397.642	54.100
397.664	35.100
397.687	35.300
397.709	50.700
397.731	54.200
397.754	34.900
397.776	40.900
397.799	60.100
397.821	55.900
397.843	73.300
397.866	-291.400
397.888	194.300
397.910	543.500
397.933	346.500
397.955	0.000
397.978	0.000
398.000	0.000
398.022	0.000
398.045	0.000
398.067	0.000
398.090	-492.500
398.112	-142.500
398.134	-15.600
398.157	65.500
398.179	-12.300
398.201	-42.300
398.224	-6.600
398.246	15.300
398.269	-7.100
398.291	-26.600
398.313	-28.000
398.336	13.700
398.358	-18.100
398.380	4.400
398.403	22.100
398.425	70.800
398.448	65.500
398.470	-26.700
398.492	-20.600
398.515	0.500
398.537	-0.700
398.559	23.300
398.582	38.800
398.604	15.500
398.627	6.200
398.649	22.700
398.671	357.100
398.694	460.000
398.716	88.400
398.738	-1.500
398.761	13.900
398.783	82.000
398.806	305.900
398.828	162.900
398.850	13.300
398.873	5.400
398.895	85.600
398.918	794.200
398.940	1316.300
398.962	286.600
398.985	19.000
399.007	15.600
399.029	141.900
399.052	588.000
399.074	396.300
399.097	45.600
399.119	15.700
399.141	132.300
399.164	1410.700
399.186	2748.000
399.208	803.800
399.231	51.900
399.253	14.900
399.276	145.600
399.298	810.700
399.320	651.900
399.343	76.100
399.365	17.800
399.387	122.000
399.410	1633.500
399.432	4303.600
399.455	1485.300
399.477	125.100
399.499	34.900
399.522	84.700
399.544	544.200
399.566	617.800
399.589	103.600
399.611	14.400
399.634	100.900
399.656	1330.100
399.678	4011.900
399.701	1848.100
399.723	140.500
399.745	17.400
399.768	66.800
399.790	508.100
399.813	782.500
399.835	227.300
399.857	33.500
399.880	37.400
399.902	448.100
399.925	2022.100
399.947	1252.200
399.969	125.900
399.992	16.100
400.014	35.100
400.036	263.800
400.059	516.200
400.081	143.800
400.104	14.800
400.126	14.700
400.148	206.300
400.171	1177.700
400.193	991.900
400.215	118.300
400.238	11.800
400.260	12.300
400.283	116.000
400.305	301.000
400.327	116.900
400.350	10.900
400.372	10.600
400.394	73.500
400.417	591.800
400.439	710.800
400.462	133.200
400.484	14.500
400.506	0.700
400.529	27.600
400.551	114.400
400.573	62.200
400.596	6.800
400.618	5.400
400.641	20.600
400.663	231.900
400.685	429.000
400.708	109.000
400.730	6.900
400.753	-4.500
400.775	6.500
400.797	60.700
400.820	47.100
400.842	4.700
400.864	-0.200
400.887	5.400
400.909	98.200
400.932	258.100
400.954	109.600
400.976	7.300
400.999	7.900
401.021	2.800
401.043	25.500
401.066	41.300
401.088	9.600
401.111	-2.700
401.133	4.900
401.155	27.400
401.178	115.900
401.200	81.300
401.222	9.400
401.245	-4.000
401.267	6.400
401.290	11.200
401.312	28.300
401.334	8.600
401.357	-1.000
401.379	5.000
401.401	23.200
401.424	92.900
401.446	111.800
401.469	22.600
401.491	-1.100
401.513	-2.900
401.536	11.100
401.558	31.000
401.581	15.200
401.603	-3.800
401.625	-1.400
401.648	11.300
401.670	94.600
401.692	131.600
401.715	29.700
401.737	4.200
401.760	-4.700
401.782	7.400
401.804	44.500
401.827	25.200
401.849	0.800
401.871	-4.200
401.894	9.800
401.916	85.200
401.939	173.700
401.961	61.200
401.983	3.800
402.006	-1.100
402.028	6.200
402.050	45.700
402.073	40.300
402.095	3.600
402.118	1.400
402.140	9.700
402.162	105.100
402.185	268.000
402.207	111.900
402.229	11.000
402.252	2.300
402.274	10.400
402.297	51.600
402.319	64.900
402.341	13.100
402.364	0.700
402.386	7.300
402.408	127.800
402.431	412.500
402.453	220.800
402.476	26.300
402.498	5.700
402.520	9.300
402.543	75.100
402.565	120.600
402.588	29.800
402.610	1.100
402.632	9.800
402.655	138.600
402.677	611.500
402.699	448.500
402.722	61.800
402.744	7.700
402.767	11.000
402.789	118.500
402.811	233.600
402.834	79.600
402.856	12.900
402.878	10.400
402.901	152.200
402.923	905.800
402.946	819.800
402.968	133.400
402.990	15.800
403.013	12.900
403.035	129.600
403.057	353.400
403.080	154.100
403.102	20.600
403.125	16.000
403.147	195.900
403.169	1369.700
403.192	1577.700
403.214	304.100
403.236	24.200
403.259	17.300
403.281	167.200
403.304	543.900
403.326	294.100
403.348	37.000
403.371	22.000
403.393	195.300
403.415	1637.600
403.438	2583.400
403.460	643.600
403.483	51.600
403.505	21.800
403.527	172.100
403.550	690.200
403.572	483.300
403.595	69.500
403.617	22.100
403.639	160.700
403.662	1674.100
403.684	3270.600
403.706	1000.100
403.729	86.600
403.751	28.300
403.774	157.500
403.796	754.300
403.818	683.800
403.841	115.400
403.863	26.700
403.885	144.500
403.908	1627.400
403.930	3714.100
403.953	1495.200
403.975	130.700
403.997	25.900
404.020	114.400
404.042	614.800
404.064	655.100
404.087	128.600
404.109	19.800
404.132	82.600
404.154	1061.100
404.176	2952.600
404.199	1478.800
404.221	148.800
404.243	22.700
404.266	56.500
404.288	388.100
404.311	502.700
404.333	112.200
404.355	-0.100
404.378	36.500
404.400	515.300
404.423	1528.000
404.445	893.100
404.467	85.400
404.490	-4.300
404.512	6.600
404.534	104.000
404.557	136.100
404.579	30.500
404.602	-3.700
404.624	-1.200
404.646	97.300
404.669	385.900
404.691	270.400
404.713	29.300
404.736	-2.400
404.758	-8.000
404.781	15.100
404.803	29.400
404.825	0.600
404.848	-9.300
404.870	-13.200
404.892	-5.800
404.915	39.000
404.937	36.000
404.960	-3.600
404.982	-14.000
405.004	-11.600
405.027	-8.200
405.049	-6.300
405.072	-13.700
405.094	-10.800
405.116	-12.800
405.139	-13.200
405.161	-2.500
405.183	-9.700
405.206	-11.500
405.228	-12.200
405.251	-14.300
405.273	-14.600
405.295	-13.200
405.318	-15.800
405.340	-15.900
405.362	-14.800
405.385	-14.600
405.407	-13.700
405.430	-11.600
405.452	-11.700
405.474	-17.300
405.497	-12.000
405.519	-12.300
405.541	-12.200
405.564	-12.900
405.586	-11.800
405.609	-10.900
405.631	-16.000
405.653	-16.000
405.676	-13.300
405.698	-14.300
405.720	-14.300
405.743	-11.500
405.765	-11.100
405.788	-10.500
405.810	-8.300
405.832	-5.200
405.855	-1.400
405.877	-0.600
405.899	-2.900
405.922	-1.800
405.944	-4.900
405.967	-1.300
405.989	-3.900
406.011	-4.000
406.034	-1.800
406.056	0.500
406.078	-2.300
406.101	-3.500
406.123	-2.400
406.146	-2.000
406.168	-3.300
406.190	-2.500
406.213	-3.300
406.235	-3.600
406.258	2.000
406.280	-1.500
406.302	-4.800
406.325	-2.300
406.347	-2.700
406.369	-1.500
406.392	-5.700
406.414	-2.900
406.437	-2.100
406.459	-1.800
406.481	0.300
406.504	-0.200
406.526	-0.400
406.548	-0.900
406.571	-2.700
406.593	-1.300
406.616	-2.300
406.638	-1.400
406.660	-2.800
406.683	-1.500
406.705	-4.500
406.727	-0.100
406.750	-3.500
406.772	-3.400
406.795	-1.000
406.817	-2.300
406.839	-4.400
406.862	-0.600
406.884	-2.800
406.906	-3.000
406.929	-2.000
406.951	-1.700
406.974	-3.500
406.996	-2.800
407.018	-2.000
407.041	-2.400
407.063	-0.500
407.086	-2.600
407.108	-3.600
407.130	-2.300
407.153	-2.400
407.175	-5.600
407.197	-3.000
407.220	-1.100
407.242	-1.100
407.265	-2.200
407.287	-0.800
407.309	-4.800
407.332	-4.200
407.354	0.000
407.376	-2.800
407.399	-5.100
407.421	0.100
407.444	-6.000
407.466	-3.700
407.488	-2.800
407.511	-2.800
407.533	-1.100
407.555	-2.600
407.578	-4.700
407.600	-6.600
407.623	-3.000
407.645	-2.900
407.667	-4.000
407.690	-2.300
407.712	-1.300
407.734	-2.800
407.757	-4.100
407.779	-5.500
407.802	-1.400
407.824	-3.800
407.846	-1.900
407.869	-1.100
407.891	-5.000
407.914	-5.400
407.936	-3.200
407.958	-2.900
407.981	-1.300
408.003	-1.100
408.025	-1.800
408.048	-1.300
408.070	-6.300
408.093	-3.700
408.115	-3.000
408.137	-5.400
408.160	-2.100
408.182	-3.400
408.204	-1.700
408.227	-3.700
408.249	-2.800
408.272	-3.700
408.294	-4.000
408.316	-1.900
408.339	-5.800
408.361	-3.100
408.383	-3.200
408.406	-5.000
408.428	-3.300
408.451	-3.100
408.473	-4.300
408.495	-4.200
408.518	-3.500
408.540	-3.500
408.562	-6.100
408.585	-1.500
408.607	-4.400
408.630	-2.100
408.652	-6.200
408.674	-4.400
408.697	-5.300
408.719	-5.700
408.741	-1.200
408.764	0.300
408.786	-2.500
408.809	-2.000
408.831	-1.600
408.853	-3.500
408.876	-2.700
408.898	-2.700
408.921	-2.900
408.943	-4.200
408.965	-2.100
408.988	-4.300
409.010	-3.600
409.032	0.500
409.055	-1.400
409.077	-3.500
409.100	-3.900
409.122	-3.500
409.144	-2.900
409.167	-2.200
409.189	-3.000
409.211	-1.500
409.234	-2.900
409.256	-4.600
409.279	-5.900
409.301	-0.900
409.323	-2.500
409.346	-1.300
409.368	-1.400
409.390	-1.700
409.413	-0.800
409.435	-2.700
