386.542	0.600
386.565	0.800
386.587	2.100
386.610	0.800
386.632	-0.100
386.654	-1.300
386.677	-1.600
386.699	0.300
386.721	-1.100
386.744	-0.100
386.766	2.700
386.789	1.800
386.811	2.600
386.833	1.400
386.856	0.600
386.878	1.400
386.900	-0.800
386.923	-0.900
386.945	-0.600
386.968	-1.100
386.990	-0.100
387.012	-1.200
387.035	-0.700
387.057	1.500
387.079	0.000
387.102	-0.700
387.124	-0.600
387.147	-0.600
387.169	1.600
387.191	2.700
387.214	2.000
387.236	-0.200
387.259	-0.100
387.281	1.500
387.303	-1.500
387.326	-2.000
387.348	-0.200
387.370	0.800
387.393	0.400
387.415	1.300
387.438	-1.900
387.460	1.200
387.482	-1.800
387.505	1.300
387.527	0.300
387.549	0.200
387.572	0.400
387.594	-1.100
387.617	-0.400
387.639	-0.900
387.661	0.800
387.684	-0.700
387.706	-0.700
387.728	0.700
387.751	0.500
387.773	-2.000
387.796	1.300
387.818	-1.800
387.840	0.300
387.863	0.800
387.885	1.300
387.907	3.500
387.930	1.100
387.952	2.500
387.975	-1.300
387.997	-1.900
388.019	1.700
388.042	-1.400
388.064	1.800
388.086	0.500
388.109	0.500
388.131	-0.100
388.154	3.400
388.176	-1.800
388.198	0.400
388.221	0.300
388.243	-0.900
388.266	-0.700
388.288	0.800
388.310	-0.300
388.333	1.200
388.355	1.500
388.377	3.500
388.400	0.600
388.422	0.400
388.445	-0.600
388.467	0.900
388.489	2.400
388.512	-1.400
388.534	0.200
388.556	-0.200
388.579	-0.200
388.601	1.300
388.624	-1.500
388.646	0.500
388.668	-0.100
388.691	0.100
388.713	-1.400
388.735	-1.300
388.758	0.100
388.780	0.100
388.803	-0.300
388.825	-1.800
388.847	-1.300
388.870	0.200
388.892	-0.200
388.914	1.100
388.937	-1.400
388.959	1.400
388.982	-0.700
389.004	-0.600
389.026	1.200
389.049	-0.200
389.071	0.200
389.094	-0.100
389.116	0.300
389.138	-2.200
389.161	1.500
389.183	-2.500
389.205	0.900
389.228	-0.600
389.250	-1.200
389.273	-1.500
389.295	-0.400
389.317	-0.900
389.340	-1.800
389.362	-3.500
389.384	2.000
389.407	-2.500
389.429	1.500
389.452	-2.900
389.474	-1.800
389.496	0.000
389.519	-0.900
389.541	1.300
389.563	-0.200
389.586	-0.200
389.608	-0.600
389.631	0.000
389.653	0.600
389.675	-0.300
389.698	-1.400
389.720	0.800
389.742	0.800
389.765	1.600
389.787	-1.000
389.810	-0.500
389.832	-0.700
389.854	-3.000
389.877	1.000
389.899	0.500
389.922	2.200
389.944	0.100
389.966	-0.900
389.989	-0.200
390.011	-2.800
390.033	0.300
390.056	-0.700
390.078	-1.600
390.101	-0.400
390.123	-0.200
390.145	0.900
390.168	-0.800
390.190	-0.300
390.212	-0.500
390.235	0.000
390.257	-1.400
390.280	-3.000
390.302	-3.200
390.324	0.800
390.347	0.000
390.369	-1.500
390.391	0.500
390.414	1.300
390.436	-0.600
390.459	-1.900
390.481	-0.300
390.503	0.900
390.526	-1.700
390.548	-2.100
390.570	-4.400
390.593	2.700
390.615	1.400
390.638	1.000
390.660	-1.500
390.682	-1.600
390.705	-0.300
390.727	0.900
390.749	-1.300
390.772	0.300
390.794	-1.900
390.817	0.800
390.839	1.100
390.861	-1.200
390.884	0.700
390.906	1.500
390.928	-1.000
390.951	0.300
390.973	-1.200
390.996	-1.500
391.018	-3.200
391.040	0.200
391.063	0.700
391.085	-1.100
391.108	-0.500
391.130	4.000
391.152	-0.600
391.175	-0.500
391.197	1.100
391.219	1.900
391.242	-0.500
391.264	-4.400
391.287	1.700
391.309	-2.000
391.331	2.500
391.354	0.400
391.376	-0.300
391.398	0.500
391.421	0.900
391.443	-1.400
391.466	-0.900
391.488	-0.500
391.510	-2.400
391.533	-1.000
391.555	0.900
391.577	-0.700
391.600	0.800
391.622	-0.200
391.645	-1.000
391.667	2.200
391.689	0.100
391.712	-1.000
391.734	-0.300
391.757	-0.800
391.779	-0.100
391.801	-1.000
391.824	1.500
391.846	-1.200
391.868	0.700
391.891	0.900
391.913	-1.000
391.936	0.400
391.958	0.600
391.980	-3.500
392.003	0.500
392.025	-0.400
392.047	1.000
392.070	1.600
392.092	-3.900
392.115	-0.600
392.137	-3.100
392.159	-0.200
392.182	-0.200
392.204	-0.800
392.226	-1.300
392.249	0.000
392.271	-1.300
392.294	-0.700
392.316	-0.500
392.338	1.000
392.361	-1.000
392.383	2.300
392.405	0.500
392.428	1.900
392.450	1.400
392.473	0.000
392.495	-3.900
392.517	-1.700
392.540	-1.500
392.562	-0.300
392.585	-2.900
392.607	-0.100
392.629	-0.500
392.652	-0.600
392.674	0.700
392.696	1.500
392.719	-1.000
392.741	-1.000
392.764	0.200
392.786	-0.600
392.808	1.300
392.831	2.800
392.853	-1.700
392.875	-1.100
392.898	-3.200
392.920	-0.900
392.943	2.200
392.965	-2.000
392.987	-2.000
393.010	0.100
393.032	-2.800
393.054	-2.100
393.077	1.200
393.099	-2.100
393.122	1.600
393.144	0.100
393.166	2.000
393.189	-0.600
393.211	-0.300
393.233	-0.200
393.256	-2.100
393.278	-2.700
393.301	-2.200
393.323	-1.600
393.345	-1.100
393.368	0.700
393.390	-2.900
393.412	-3.400
393.435	0.700
393.457	0.100
393.480	-1.000
393.502	-2.100
393.524	1.900
393.547	-1.200
393.569	-2.300
393.592	-2.000
393.614	-0.900
393.636	-0.400
393.659	0.000
393.681	-3.000
393.703	0.200
393.726	-1.100
393.748	0.700
393.771	-3.800
393.793	-0.200
393.815	-3.200
393.838	-5.100
393.860	-1.700
393.882	1.700
393.905	0.800
393.927	0.400
393.950	1.500
393.972	4.700
393.994	-3.600
394.017	-5.100
394.039	-1.300
394.061	-3.500
394.084	-1.700
394.106	-2.100
394.129	-1.300
394.151	-3.300
394.173	0.900
394.196	0.500
394.218	-1.000
394.240	0.800
394.263	-4.600
394.285	-4.900
394.308	-4.900
394.330	-2.500
394.352	-6.200
394.375	0.700
394.397	-3.400
394.419	-1.700
394.442	-3.900
394.464	0.600
394.487	6.000
394.509	-0.100
394.531	5.900
394.554	3.800
394.576	3.400
394.599	0.100
394.621	4.100
394.643	2.900
394.666	2.800
394.688	7.600
394.710	0.300
394.733	7.300
394.755	2.300
394.778	11.300
394.800	5.400
394.822	2.100
394.845	2.900
394.867	0.400
394.889	-4.600
394.912	0.600
394.934	0.200
394.957	1.400
394.979	0.400
395.001	4.500
395.024	-5.700
395.046	-4.500
395.068	-4.100
395.091	5.600
395.113	-3.900
395.136	-5.000
395.158	-0.800
395.180	1.600
395.203	-8.400
395.225	0.400
395.247	-6.000
395.270	-1.000
395.292	-1.200
395.315	-1.400
395.337	-4.500
395.359	-2.300
395.382	-4.000
395.404	-2.700
395.427	-0.100
395.449	0.000
395.471	-7.900
395.494	-4.100
395.516	-3.700
395.538	2.300
395.561	2.200
395.583	8.400
395.606	1.500
395.628	-9.400
395.650	1.900
395.673	-1.000
395.695	6.500
395.717	0.300
395.740	-1.000
395.762	1.100
395.785	-2.400
395.807	-3.000
395.829	-2.300
395.852	2.400
395.874	-1.100
395.896	-3.300
395.919	4.400
395.941	2.400
395.964	-1.000
395.986	-2.300
396.008	-1.700
396.031	-4.000
396.053	3.100
396.075	1.900
396.098	1.200
396.120	-3.200
396.143	-6.000
396.165	-6.000
396.187	-4.600
396.210	-3.000
396.232	0.600
396.255	0.300
396.277	-0.800
396.299	-3.000
396.322	-1.700
396.344	0.700
396.366	0.100
396.389	4.100
396.411	-5.600
396.434	0.500
396.456	2.000
396.478	-3.600
396.501	0.200
396.523	-2.400
396.545	1.200
396.568	-2.900
396.590	-3.300
396.613	-1.500
396.635	0.300
396.657	-1.800
396.680	-3.100
396.702	-3.000
396.724	-4.700
396.747	-2.100
396.769	-4.400
396.792	1.200
396.814	-1.200
396.836	-1.500
396.859	-1.900
396.881	-0.900
396.903	1.500
396.926	2.300
396.948	-1.000
396.971	4.200
396.993	0.800
397.015	6.000
397.038	-5.700
397.060	3.200
397.082	2.900
397.105	-0.100
397.127	-3.300
397.150	-10.600
397.172	-4.900
397.194	1.300
397.217	1.600
397.239	-17.000
397.262	-24.100
397.284	-4.700
397.306	5.500
397.329	-0.900
397.351	-0.300
397.373	1.600
397.396	-5.500
397.418	13.000
397.441	29.000
397.463	47.300
397.485	70.600
397.508	68.300
397.530	87.300
397.552	66.500
397.575	52.500
397.597	76.000
397.620	83.200
397.642	102.000
397.664	96.500
397.687	96.700
397.709	117.200
397.731	117.400
397.754	93.500
397.776	101.700
397.799	122.200
397.821	116.600
397.843	189.700
397.866	-204.300
397.888	33.800
397.910	451.800
397.933	-500.600
397.955	0.000
397.978	0.000
398.000	0.000
398.022	0.000
398.045	0.000
398.067	0.000
398.090	-2355.500
398.112	-735.000
398.134	-328.800
398.157	-87.400
398.179	-86.200
398.201	-66.300
398.224	-17.500
398.246	13.400
398.269	-13.300
398.291	-25.000
398.313	-20.300
398.336	24.700
398.358	-22.500
398.380	8.900
398.403	41.000
398.425	89.000
398.448	74.900
398.470	-12.800
398.492	-0.500
398.515	17.900
398.537	16.800
398.559	45.600
398.582	45.100
398.604	21.900
398.627	12.500
398.649	27.000
398.671	396.900
398.694	464.600
398.716	84.600
398.738	6.900
398.761	17.400
398.783	95.000
398.806	322.200
398.828	160.700
398.850	20.100
398.873	17.200
398.895	104.200
398.918	844.100
398.940	1297.500
398.962	268.800
398.985	29.300
399.007	24.900
399.029	167.400
399.052	621.700
399.074	392.500
399.097	48.500
399.119	27.000
399.141	151.400
399.164	1528.400
399.186	2771.600
399.208	757.300
399.231	56.500
399.253	23.400
399.276	171.600
399.298	853.600
399.320	639.600
399.343	79.400
399.365	26.600
399.387	148.800
399.410	1771.300
399.432	4413.000
399.455	1425.400
399.477	125.800
399.499	42.200
399.522	101.400
399.544	576.200
399.566	617.300
399.589	103.900
399.611	22.200
399.634	119.700
399.656	1464.000
399.678	4143.900
399.701	1798.700
399.723	133.700
399.745	23.900
399.768	77.000
399.790	550.100
399.813	792.900
399.835	221.900
399.857	38.400
399.880	46.400
399.902	499.300
399.925	2131.400
399.947	1234.600
399.969	121.300
399.992	18.000
400.014	40.600
400.036	286.700
400.059	521.200
400.081	138.300
400.104	17.300
400.126	19.700
400.148	228.500
400.171	1226.700
400.193	975.300
400.215	113.600
400.238	14.600
400.260	18.000
400.283	123.000
400.305	301.900
400.327	114.200
400.350	17.100
400.372	13.400
400.394	81.400
400.417	625.200
400.439	697.400
400.462	122.500
400.484	18.500
400.506	6.400
400.529	33.000
400.551	114.600
400.573	58.600
400.596	9.700
400.618	7.800
400.641	27.900
400.663	243.800
400.685	420.300
400.708	101.100
400.730	11.400
400.753	-0.500
400.775	10.100
400.797	62.800
400.820	47.000
400.842	8.700
400.864	3.400
400.887	9.000
400.909	100.400
400.932	230.100
400.954	92.900
400.976	9.700
400.999	11.400
401.021	6.800
401.043	26.900
401.066	40.600
401.088	13.000
401.111	-1.100
401.133	9.000
401.155	30.500
401.178	102.100
401.200	65.900
401.222	10.800
401.245	-0.500
401.267	11.500
401.290	25.700
401.312	46.400
401.334	18.100
401.357	7.200
401.379	12.100
401.401	25.000
401.424	68.700
401.446	79.200
401.469	20.800
401.491	5.700
401.513	6.800
401.536	40.800
401.558	97.100
401.581	45.000
401.603	6.400
401.625	9.200
401.648	37.900
401.670	207.000
401.692	228.700
401.715	51.700
401.737	15.700
401.760	14.000
401.782	87.100
401.804	281.000
401.827	151.000
401.849	28.800
401.871	31.100
401.894	308.800
401.916	2395.400
401.939	3302.900
401.961	793.400
401.983	87.200
402.006	76.700
402.028	840.200
402.050	3885.700
402.073	2690.100
402.095	367.500
402.118	115.100
402.140	1209.900
402.162	12885.200
402.185	25775.500
402.207	7782.000
402.229	577.300
402.252	99.500
402.274	148.000
402.297	593.200
402.319	617.900
402.341	147.800
402.364	41.800
402.386	82.100
402.408	870.100
402.431	2277.500
402.453	917.400
402.476	90.100
402.498	24.700
402.520	18.300
402.543	23.900
402.565	25.300
402.588	13.500
402.610	9.200
402.632	16.700
402.655	55.300
402.677	181.700
402.699	118.700
402.722	21.500
402.744	9.000
402.767	6.300
402.789	11.700
402.811	16.900
402.834	7.600
402.856	5.000
402.878	4.100
402.901	8.100
402.923	32.700
402.946	29.200
402.968	4.100
402.990	5.500
403.013	0.300
403.035	8.400
403.057	20.300
403.080	11.000
403.102	3.300
403.125	5.100
403.147	5.000
403.169	13.300
403.192	12.800
403.214	1.400
403.236	-1.300
403.259	0.600
403.281	17.700
403.304	48.900
403.326	24.000
403.348	2.000
403.371	1.000
403.393	3.800
403.415	0.400
403.438	0.600
403.460	1.500
403.483	1.000
403.505	2.700
403.527	24.900
403.550	103.600
403.572	65.800
403.595	8.400
403.617	3.200
403.639	0.200
403.662	3.600
403.684	3.900
403.706	0.100
403.729	-0.700
403.751	1.000
403.774	27.700
403.796	135.300
403.818	117.100
403.841	20.100
403.863	3.000
403.885	0.400
403.908	6.400
403.930	11.800
403.953	4.000
403.975	1.400
403.997	2.600
404.020	19.700
404.042	130.600
404.064	138.100
404.087	23.100
404.109	-1.000
404.132	-1.500
404.154	-1.700
404.176	6.400
404.199	-4.200
404.221	-7.200
404.243	-11.500
404.266	-1.700
404.288	64.000
404.311	81.600
404.333	7.700
404.355	-15.800
404.378	-14.500
404.400	-8.000
404.423	-7.600
404.445	-9.800
404.467	-14.100
404.490	-15.400
404.512	-11.300
404.534	8.900
404.557	13.700
404.579	-4.800
404.602	-11.000
404.624	-12.000
404.646	-12.100
404.669	-13.600
404.691	-11.100
404.713	-12.200
404.736	-12.200
404.758	-14.600
404.781	-7.300
404.803	-7.100
404.825	-12.200
404.848	-10.400
404.870	-14.200
404.892	-16.100
404.915	-10.500
404.937	-9.200
404.960	-11.200
404.982	-15.100
405.004	-9.800
405.027	-10.200
405.049	-9.900
405.072	-14.000
405.094	-10.600
405.116	-12.500
405.139	-14.200
405.161	-9.900
405.183	-16.300
405.206	-10.700
405.228	-12.100
405.251	-13.700
405.273	-12.400
405.295	-12.600
405.318	-14.900
405.340	-14.300
405.362	-13.400
405.385	-13.400
405.407	-13.500
405.430	-10.200
405.452	-11.100
405.474	-16.300
405.497	-10.500
405.519	-10.600
405.541	-11.600
405.564	-11.900
405.586	-10.400
405.609	-8.400
405.631	-14.000
405.653	-15.400
405.676	-10.500
405.698	-12.900
405.720	-13.000
405.743	-10.600
405.765	-9.000
405.788	-9.300
405.810	-6.700
405.832	-3.500
405.855	-0.900
405.877	0.800
405.899	-1.400
405.922	-1.600
405.944	-2.800
405.967	1.400
405.989	-2.000
406.011	-2.900
406.034	-0.100
406.056	2.100
406.078	-0.200
406.101	-2.800
406.123	-0.600
406.146	0.200
406.168	-1.800
406.190	-1.400
406.213	-1.500
406.235	-3.100
406.258	2.500
406.280	-0.800
406.302	-4.200
406.325	-1.200
406.347	-1.400
406.369	0.000
406.392	-5.300
406.414	-1.700
406.437	-0.800
406.459	0.200
406.481	1.100
406.504	0.900
406.526	0.600
406.548	0.200
406.571	-1.800
406.593	-1.100
406.616	-0.900
406.638	-2.100
406.660	-3.000
406.683	-0.300
406.705	-3.500
406.727	0.300
406.750	-2.600
406.772	-2.700
406.795	0.500
406.817	-1.800
406.839	-4.200
406.862	-0.200
406.884	-1.200
406.906	-1.400
406.929	-0.600
406.951	-0.600
406.974	-1.700
406.996	-2.700
407.018	-0.900
407.041	-1.100
407.063	0.700
407.086	-1.500
407.108	-2.800
407.130	-1.300
407.153	-2.200
407.175	-4.000
407.197	-1.500
407.220	0.900
407.242	-1.200
407.265	-1.900
407.287	-0.600
407.309	-4.000
407.332	-4.300
407.354	-0.300
407.376	-2.900
407.399	-3.900
407.421	1.500
407.444	-4.500
407.466	-2.400
407.488	-1.800
407.511	-3.000
407.533	-1.600
407.555	-2.600
407.578	-3.700
407.600	-6.000
407.623	-1.900
407.645	-2.000
407.667	-4.000
407.690	0.000
407.712	-1.100
407.734	-1.800
407.757	-2.800
407.779	-3.800
407.802	0.400
407.824	-3.400
407.846	-0.200
407.869	-0.400
407.891	-4.300
407.914	-4.400
407.936	-2.000
407.958	-1.300
407.981	-0.200
408.003	-1.500
408.025	-1.300
408.048	-0.200
408.070	-4.200
408.093	-2.400
408.115	-3.600
408.137	-3.400
408.160	-0.700
408.182	-2.500
408.204	-0.900
408.227	-2.500
408.249	-1.900
408.272	-2.600
408.294	-3.200
408.316	-0.700
408.339	-5.100
408.361	-1.700
408.383	-2.800
408.406	-3.200
408.428	-2.000
408.451	-1.700
408.473	-2.900
408.495	-2.300
408.518	-3.800
408.540	-3.500
408.562	-4.400
408.585	-0.700
408.607	-2.800
408.630	-0.400
408.652	-5.500
408.674	-3.800
408.697	-3.400
408.719	-4.400
408.741	-0.200
408.764	1.000
408.786	-1.200
408.809	-1.600
408.831	-0.200
408.853	-2.200
408.876	-0.900
408.898	-1.200
408.921	-2.200
408.943	-3.700
408.965	-0.700
408.988	-2.300
409.010	-2.500
409.032	1.300
409.055	-1.100
409.077	-3.600
409.100	-3.000
409.122	-2.800
409.144	-2.500
409.167	-1.500
409.189	-1.500
409.211	-1.300
409.234	-2.200
409.256	-3.100
409.279	-3.900
409.301	-0.500
409.323	-2.100
409.346	-0.400
409.368	-1.400
409.390	-0.900
409.413	0.100
409.435	-1.300
