386.542	-10.200
386.565	-7.700
386.587	-7.200
386.610	-9.800
386.632	-8.100
386.654	-6.500
386.677	-8.000
386.699	-12.000
386.721	-9.100
386.744	-7.600
386.766	-6.300
386.789	-9.500
386.811	-7.300
386.833	-10.300
386.856	-9.700
386.878	-8.700
386.900	-8.600
386.923	-6.600
386.945	-9.800
386.968	-8.800
386.990	-4.100
387.012	-11.000
387.035	-8.400
387.057	-7.300
387.079	-8.300
387.102	-8.100
387.124	-8.100
387.147	-9.700
387.169	-7.900
387.191	-6.100
387.214	-6.400
387.236	-5.100
387.259	-5.600
387.281	-10.500
387.303	-9.000
387.326	-8.200
387.348	-11.900
387.370	-7.600
387.393	-7.100
387.415	-7.900
387.438	-6.300
387.460	-8.100
387.482	-8.100
387.505	-6.000
387.527	-11.000
387.549	-8.500
387.572	-4.200
387.594	-8.400
387.617	-8.900
387.639	-8.800
387.661	-5.000
387.684	-7.800
387.706	-8.300
387.728	-7.300
387.751	-5.900
387.773	-5.100
387.796	-5.800
387.818	-8.600
387.840	-7.100
387.863	-8.100
387.885	-6.600
387.907	-9.200
387.930	-8.700
387.952	-9.100
387.975	-8.800
387.997	-7.100
388.019	-8.000
388.042	-6.300
388.064	-4.200
388.086	-5.500
388.109	-5.000
388.131	-5.600
388.154	-8.400
388.176	-7.800
388.198	-6.700
388.221	-6.100
388.243	-4.800
388.266	-2.900
388.288	-6.700
388.310	-5.200
388.333	-6.400
388.355	-5.000
388.377	-6.300
388.400	-5.600
388.422	-4.000
388.445	-3.900
388.467	-7.000
388.489	-5.400
388.512	-5.300
388.534	-5.500
388.556	-2.800
388.579	-4.200
388.601	-7.300
388.624	-4.100
388.646	-2.200
388.668	-3.500
388.691	-5.800
388.713	-3.000
388.735	-5.100
388.758	-6.400
388.780	-2.900
388.803	-4.100
388.825	-0.100
388.847	-4.300
388.870	-2.000
388.892	-2.700
388.914	-4.300
388.937	-1.300
388.959	-2.700
388.982	-0.500
389.004	-2.700
389.026	-1.400
389.049	-0.800
389.071	0.700
389.094	-1.400
389.116	-3.900
389.138	-0.500
389.161	-1.200
389.183	0.500
389.205	-2.500
389.228	-2.200
389.250	0.500
389.273	-1.600
389.295	-0.600
389.317	-0.700
389.340	-0.500
389.362	-2.200
389.384	2.700
389.407	5.200
389.429	-1.700
389.452	2.600
389.474	5.200
389.496	-0.800
389.519	3.900
389.541	1.200
389.563	1.800
389.586	3.200
389.608	0.100
389.631	4.600
389.653	-0.400
389.675	3.400
389.698	2.700
389.720	4.100
389.742	4.700
389.765	6.500
389.787	6.100
389.810	3.800
389.832	4.600
389.854	3.900
389.877	5.800
389.899	6.800
389.922	4.300
389.944	5.700
389.966	5.400
389.989	8.100
390.011	9.400
390.033	7.400
390.056	9.800
390.078	9.300
390.101	7.700
390.123	9.700
390.145	9.100
390.168	11.900
390.190	8.100
390.212	9.100
390.235	11.200
390.257	5.400
390.280	10.200
390.302	12.800
390.324	8.800
390.347	11.900
390.369	12.800
390.391	12.100
390.414	11.100
390.436	10.100
390.459	13.100
390.481	18.000
390.503	10.800
390.526	12.000
390.548	16.000
390.570	12.400
390.593	11.500
390.615	12.900
390.638	12.700
390.660	17.200
390.682	17.800
390.705	13.800
390.727	16.400
390.749	14.700
390.772	20.500
390.794	16.100
390.817	15.700
390.839	15.400
390.861	22.500
390.884	16.000
390.906	17.900
390.928	19.700
390.951	15.700
390.973	22.100
390.996	20.400
391.018	21.700
391.040	18.400
391.063	20.800
391.085	20.100
391.108	24.700
391.130	21.400
391.152	23.000
391.175	22.700
391.197	24.100
391.219	24.300
391.242	22.200
391.264	23.300
391.287	25.200
391.309	23.400
391.331	28.200
391.354	27.100
391.376	27.100
391.398	24.000
391.421	31.500
391.443	24.200
391.466	30.300
391.488	24.200
391.510	26.900
391.533	28.700
391.555	29.400
391.577	31.400
391.600	26.900
391.622	29.600
391.645	28.600
391.667	30.000
391.689	28.200
391.712	33.800
391.734	31.800
391.757	40.600
391.779	29.300
391.801	36.400
391.824	37.200
391.846	37.800
391.868	39.100
391.891	35.700
391.913	42.200
391.936	34.400
391.958	38.400
391.980	38.400
392.003	42.300
392.025	36.900
392.047	39.900
392.070	38.200
392.092	42.000
392.115	42.100
392.137	42.600
392.159	42.300
392.182	45.300
392.204	42.000
392.226	48.200
392.249	38.200
392.271	43.200
392.294	45.500
392.316	40.500
392.338	44.900
392.361	50.300
392.383	48.200
392.405	44.200
392.428	47.100
392.450	49.800
392.473	52.900
392.495	51.500
392.517	48.400
392.540	50.600
392.562	56.900
392.585	47.300
392.607	52.300
392.629	55.200
392.652	58.500
392.674	54.000
392.696	66.300
392.719	44.700
392.741	58.300
392.764	56.800
392.786	58.100
392.808	55.200
392.831	58.500
392.853	64.100
392.875	57.600
392.898	55.900
392.920	63.500
392.943	55.900
392.965	65.600
392.987	64.300
393.010	60.300
393.032	54.600
393.054	69.600
393.077	67.200
393.099	60.100
393.122	67.300
393.144	68.800
393.166	66.300
393.189	65.000
393.211	66.600
393.233	69.000
393.256	67.800
393.278	76.100
393.301	66.600
393.323	68.700
393.345	74.800
393.368	57.900
393.390	72.800
393.412	75.500
393.435	81.100
393.457	68.900
393.480	80.700
393.502	74.600
393.524	75.800
393.547	66.900
393.569	83.900
393.592	75.200
393.614	81.500
393.636	76.900
393.659	81.800
393.681	76.600
393.703	77.400
393.726	82.400
393.748	82.400
393.771	83.900
393.793	84.100
393.815	78.100
393.838	97.100
393.860	78.900
393.882	91.000
393.905	83.900
393.927	89.500
393.950	83.300
393.972	96.500
393.994	84.300
394.017	79.800
394.039	94.300
394.061	86.900
394.084	92.200
394.106	96.900
394.129	91.300
394.151	93.800
394.173	95.800
394.196	92.800
394.218	106.300
394.240	108.000
394.263	87.400
394.285	109.500
394.308	101.700
394.330	85.400
394.352	96.700
394.375	108.700
394.397	98.300
394.419	96.400
394.442	101.400
394.464	102.300
394.487	123.600
394.509	118.100
394.531	116.100
394.554	109.100
394.576	116.100
394.599	111.000
394.621	97.100
394.643	133.500
394.666	124.800
394.688	125.500
394.710	131.300
394.733	132.500
394.755	128.000
394.778	133.100
394.800	135.900
394.822	133.100
394.845	111.000
394.867	131.700
394.889	134.400
394.912	134.000
394.934	133.800
394.957	121.200
394.979	143.400
395.001	132.900
395.024	123.300
395.046	134.200
395.068	127.500
395.091	138.300
395.113	139.200
395.136	118.500
395.158	115.300
395.180	119.200
395.203	112.500
395.225	115.400
395.247	104.800
395.270	114.300
395.292	109.000
395.315	117.600
395.337	102.200
395.359	105.800
395.382	122.100
395.404	110.700
395.427	136.800
395.449	99.200
395.471	126.800
395.494	114.300
395.516	115.600
395.538	105.800
395.561	108.700
395.583	129.100
395.606	108.300
395.628	111.500
395.650	112.700
395.673	121.400
395.695	119.100
395.717	108.400
395.740	106.800
395.762	112.700
395.785	113.600
395.807	121.900
395.829	106.800
395.852	122.600
395.874	109.600
395.896	118.600
395.919	128.400
395.941	103.700
395.964	118.400
395.986	109.700
396.008	107.500
396.031	116.000
396.053	103.800
396.075	117.300
396.098	106.100
396.120	118.100
396.143	110.300
396.165	121.900
396.187	116.400
396.210	117.500
396.232	113.100
396.255	117.300
396.277	114.800
396.299	112.500
396.322	117.200
396.344	123.100
396.366	117.900
396.389	116.100
396.411	108.900
396.434	108.100
396.456	124.700
396.478	111.800
396.501	114.800
396.523	125.500
396.545	113.800
396.568	105.100
396.590	116.700
396.613	113.700
396.635	118.600
396.657	121.200
396.680	113.000
396.702	122.500
396.724	129.100
396.747	99.600
396.769	117.200
396.792	117.000
396.814	122.400
396.836	110.200
396.859	118.000
396.881	119.400
396.903	119.000
396.926	108.200
396.948	112.800
396.971	120.800
396.993	117.900
397.015	115.100
397.038	130.800
397.060	124.000
397.082	129.500
397.105	118.900
397.127	125.700
397.150	129.500
397.172	134.800
397.194	127.300
397.217	123.100
397.239	110.600
397.262	154.600
397.284	156.800
397.306	259.100
397.329	393.500
397.351	507.300
397.373	572.800
397.396	693.700
397.418	652.900
397.441	574.800
397.463	579.700
397.485	442.100
397.508	477.600
397.530	506.300
397.552	629.100
397.575	746.200
397.597	773.100
397.620	839.500
397.642	987.200
397.664	1072.800
397.687	1073.200
397.709	1097.700
397.731	1231.800
397.754	1140.900
397.776	958.800
397.799	1163.800
397.821	1468.800
397.843	1493.500
397.866	1619.900
397.888	2081.400
397.910	3434.100
397.933	6014.200
397.955	60.700
397.978	0.000
398.000	0.000
398.022	0.000
398.045	0.000
398.067	0.000
398.090	-3637.100
398.112	-2136.700
398.134	187.100
398.157	-556.900
398.179	-383.900
398.201	-125.900
398.224	635.900
398.246	28.600
398.269	-2100.400
398.291	-2947.800
398.313	-609.600
398.336	2389.600
398.358	6608.700
398.380	-8656.600
398.403	-8121.300
398.425	-924.800
398.448	-19.700
398.470	77.200
398.492	59.500
398.515	26.600
398.537	74.000
398.559	71.900
398.582	84.100
398.604	73.100
398.627	22.200
398.649	-45.800
398.671	-143.100
398.694	43.900
398.716	139.700
398.738	68.200
398.761	40.100
398.783	46.100
398.806	58.800
398.828	98.900
398.850	75.100
398.873	39.800
398.895	26.000
398.918	58.300
398.940	208.100
398.962	478.000
398.985	250.200
399.007	59.400
399.029	44.800
399.052	54.500
399.074	116.800
399.097	143.900
399.119	66.900
399.141	49.000
399.164	69.800
399.186	208.800
399.208	642.200
399.231	429.700
399.253	88.700
399.276	43.700
399.298	57.600
399.320	162.100
399.343	291.000
399.365	125.100
399.387	46.800
399.410	73.300
399.432	333.400
399.455	1552.900
399.477	1317.300
399.499	216.600
399.522	51.500
399.544	49.800
399.566	165.600
399.589	365.500
399.611	152.800
399.634	48.300
399.656	63.700
399.678	206.300
399.701	1187.600
399.723	1371.100
399.745	276.100
399.768	44.600
399.790	48.800
399.813	164.200
399.835	420.600
399.857	227.900
399.880	57.400
399.902	40.000
399.925	120.800
399.947	666.500
399.969	954.200
399.992	239.500
400.014	43.300
400.036	25.300
400.059	60.300
400.081	174.400
400.104	136.000
400.126	46.100
400.148	36.300
400.171	60.900
400.193	354.600
400.215	725.900
400.238	267.000
400.260	44.300
400.283	30.200
400.305	40.000
400.327	117.100
400.350	104.000
400.372	42.100
400.394	25.700
400.417	27.900
400.439	111.800
400.462	271.900
400.484	144.300
400.506	38.400
400.529	24.200
400.551	33.400
400.573	45.600
400.596	58.600
400.618	29.700
400.641	41.300
400.663	39.700
400.685	58.800
400.708	123.400
400.730	102.500
400.753	48.200
400.775	38.100
400.797	39.000
400.820	68.700
400.842	79.500
400.864	40.100
400.887	37.600
400.909	41.400
400.932	55.300
400.954	100.200
400.976	98.300
400.999	62.000
401.021	41.000
401.043	58.300
401.066	53.100
401.088	86.100
401.111	66.300
401.133	48.100
401.155	79.300
401.178	145.600
401.200	233.700
401.222	203.900
401.245	77.300
401.267	62.300
401.290	111.800
401.312	213.300
401.334	433.100
401.357	330.300
401.379	106.200
401.401	171.700
401.424	737.400
401.446	2200.400
401.469	2807.200
401.491	854.100
401.513	117.800
401.536	179.700
401.558	589.100
401.581	1391.900
401.603	1155.700
401.625	224.300
401.648	60.600
401.670	111.000
401.692	298.200
401.715	443.100
401.737	196.300
401.760	44.400
401.782	28.700
401.804	83.400
401.827	203.900
401.849	226.500
401.871	62.700
401.894	15.500
401.916	22.800
401.939	41.900
401.961	77.100
401.983	45.200
402.006	16.600
402.028	11.200
402.050	24.300
402.073	45.200
402.095	53.300
402.118	24.900
402.140	12.700
402.162	25.600
402.185	55.900
402.207	123.900
402.229	116.800
402.252	26.400
402.274	9.800
402.297	10.100
402.319	9.200
402.341	6.200
402.364	10.600
402.386	8.300
402.408	19.800
402.431	47.600
402.453	103.400
402.476	136.200
402.498	48.400
402.520	10.000
402.543	7.700
402.565	9.100
402.588	9.400
402.610	10.600
402.632	10.600
402.655	23.400
402.677	53.600
402.699	138.000
402.722	209.400
402.744	93.600
402.767	16.100
402.789	9.800
402.811	10.600
402.834	15.700
402.856	11.100
402.878	11.600
402.901	25.300
402.923	84.600
402.946	233.200
402.968	417.000
402.990	216.500
403.013	32.600
403.035	12.600
403.057	14.100
403.080	17.100
403.102	17.700
403.125	15.700
403.147	24.100
403.169	94.500
403.192	267.000
403.214	540.700
403.236	349.900
403.259	59.400
403.281	14.400
403.304	16.400
403.326	21.900
403.348	23.900
403.371	19.000
403.393	23.900
403.415	92.400
403.438	267.000
403.460	577.700
403.483	465.400
403.505	87.300
403.527	19.300
403.550	18.200
403.572	29.700
403.595	30.200
403.617	20.800
403.639	20.200
403.662	70.600
403.684	219.300
403.706	527.000
403.729	507.900
403.751	117.400
403.774	18.400
403.796	13.500
403.818	20.500
403.841	28.700
403.863	19.700
403.885	12.900
403.908	39.800
403.930	116.100
403.953	285.900
403.975	335.000
403.997	96.500
404.020	16.300
404.042	10.600
404.064	13.600
404.087	16.800
404.109	12.600
404.132	7.400
404.154	12.800
404.176	42.300
404.199	105.600
404.221	142.300
404.243	51.000
404.266	9.600
404.288	4.300
404.311	9.700
404.333	11.100
404.355	9.100
404.378	7.900
404.400	4.300
404.423	10.100
404.445	23.900
404.467	34.800
404.490	15.800
404.512	0.600
404.534	4.300
404.557	2.900
404.579	3.300
404.602	4.500
404.624	5.500
404.646	2.200
404.669	2.600
404.691	5.500
404.713	7.300
404.736	9.000
404.758	2.300
404.781	3.500
404.803	2.000
404.825	4.500
404.848	4.400
404.870	1.800
404.892	4.600
404.915	5.900
404.937	3.700
404.960	-3.100
404.982	3.300
405.004	2.100
405.027	6.800
405.049	5.200
405.072	6.900
405.094	3.200
405.116	5.100
405.139	3.000
405.161	4.000
405.183	1.000
405.206	3.200
405.228	4.400
405.251	-0.300
405.273	8.700
405.295	4.500
405.318	3.400
405.340	4.200
405.362	3.200
405.385	3.800
405.407	2.400
405.430	3.900
405.452	4.600
405.474	5.200
405.497	1.200
405.519	5.600
405.541	0.800
405.564	2.900
405.586	7.400
405.609	3.800
405.631	3.300
405.653	5.100
405.676	2.700
405.698	-0.300
405.720	2.900
405.743	4.400
405.765	1.500
405.788	1.900
405.810	2.500
405.832	3.000
405.855	3.900
405.877	0.600
405.899	1.200
405.922	1.400
405.944	2.700
405.967	3.400
405.989	2.300
406.011	2.800
406.034	1.200
406.056	4.000
406.078	2.800
406.101	2.600
406.123	4.600
406.146	2.600
406.168	2.100
406.190	2.500
406.213	4.400
406.235	4.400
406.258	3.100
406.280	2.200
406.302	1.800
406.325	3.100
406.347	2.700
406.369	1.800
406.392	1.500
406.414	2.700
406.437	3.000
406.459	1.300
406.481	3.300
406.504	3.500
406.526	3.200
406.548	1.800
406.571	2.900
406.593	4.200
406.616	3.100
406.638	1.300
406.660	1.700
406.683	4.700
406.705	1.700
406.727	3.400
406.750	3.700
406.772	2.500
406.795	2.600
406.817	3.500
406.839	2.500
406.862	2.100
406.884	2.200
406.906	3.100
406.929	3.000
406.951	2.600
406.974	4.400
406.996	3.100
407.018	0.200
407.041	2.100
407.063	1.500
407.086	2.600
407.108	3.300
407.130	3.400
407.153	0.900
407.175	1.800
407.197	4.100
407.220	1.500
407.242	4.400
407.265	3.700
407.287	2.600
407.309	1.400
407.332	2.900
407.354	2.700
407.376	1.500
407.399	3.800
407.421	2.700
407.444	1.300
407.466	1.300
407.488	0.500
407.511	1.000
407.533	1.200
407.555	5.900
407.578	2.600
407.600	3.800
407.623	-0.400
407.645	0.300
407.667	0.800
407.690	3.000
407.712	-0.200
407.734	3.900
407.757	2.600
407.779	1.000
407.802	-1.800
407.824	1.700
407.846	2.000
407.869	1.400
407.891	1.700
407.914	1.300
407.936	2.900
407.958	1.700
407.981	0.800
408.003	1.900
408.025	2.100
408.048	2.400
408.070	3.200
408.093	1.900
408.115	0.900
408.137	2.300
408.160	2.800
408.182	-0.100
408.204	0.900
408.227	0.800
408.249	0.200
408.272	2.100
408.294	1.500
408.316	3.600
408.339	1.300
408.361	2.600
408.383	1.200
408.406	1.400
408.428	1.000
408.451	2.400
408.473	4.500
408.495	1.000
408.518	2.600
408.540	1.000
408.562	0.400
408.585	-0.600
408.607	3.100
408.630	2.000
408.652	2.200
408.674	1.000
408.697	1.700
408.719	-0.100
408.741	2.100
408.764	1.200
408.786	1.400
408.809	1.900
408.831	3.300
408.853	1.900
408.876	-1.300
408.898	0.500
408.921	1.300
408.943	0.900
408.965	4.000
408.988	3.500
409.010	3.800
409.032	0.500
409.055	1.200
409.077	1.300
409.100	3.600
409.122	3.100
409.144	2.100
409.167	2.200
409.189	2.200
409.211	1.600
409.234	-0.500
409.256	1.800
409.279	3.200
409.301	1.200
409.323	1.600
409.346	0.600
409.368	0.900
409.390	1.800
409.413	2.500
409.435	1.200
