386.542	-6.500
386.565	-3.700
386.587	-2.800
386.610	-6.500
386.632	-6.200
386.654	-3.800
386.677	-5.400
386.699	-9.800
386.721	-5.900
386.744	-5.400
386.766	-3.300
386.789	-8.100
386.811	-3.900
386.833	-8.000
386.856	-6.200
386.878	-5.200
386.900	-5.600
386.923	-4.500
386.945	-8.000
386.968	-6.300
386.990	-1.200
387.012	-7.900
387.035	-5.100
387.057	-5.500
387.079	-5.700
387.102	-4.900
387.124	-6.500
387.147	-7.100
387.169	-6.300
387.191	-4.000
387.214	-4.000
387.236	-2.300
387.259	-3.900
387.281	-9.400
387.303	-7.000
387.326	-6.100
387.348	-9.100
387.370	-4.900
387.393	-5.600
387.415	-6.100
387.438	-2.800
387.460	-6.600
387.482	-5.200
387.505	-4.100
387.527	-8.500
387.549	-5.100
387.572	-2.600
387.594	-7.500
387.617	-7.300
387.639	-7.100
387.661	-1.600
387.684	-6.600
387.706	-6.100
387.728	-5.300
387.751	-4.500
387.773	-4.300
387.796	-3.000
387.818	-6.500
387.840	-4.300
387.863	-6.400
387.885	-5.200
387.907	-7.300
387.930	-7.200
387.952	-7.400
387.975	-7.100
387.997	-5.300
388.019	-7.000
388.042	-4.400
388.064	-3.000
388.086	-3.900
388.109	-3.600
388.131	-3.500
388.154	-7.400
388.176	-6.400
388.198	-6.000
388.221	-4.900
388.243	-2.200
388.266	-2.900
388.288	-5.300
388.310	-4.200
388.333	-6.100
388.355	-4.900
388.377	-4.500
388.400	-4.900
388.422	-3.500
388.445	-2.300
388.467	-6.300
388.489	-5.600
388.512	-4.500
388.534	-5.100
388.556	-1.800
388.579	-4.900
388.601	-7.600
388.624	-3.700
388.646	-1.900
388.668	-4.300
388.691	-6.300
388.713	-2.600
388.735	-5.200
388.758	-6.700
388.780	-4.300
388.803	-5.400
388.825	-1.900
388.847	-4.900
388.870	-5.200
388.892	-4.700
388.914	-5.000
388.937	-2.000
388.959	-4.100
388.982	-2.400
389.004	-4.900
389.026	-2.900
389.049	-4.100
389.071	-2.000
389.094	-4.200
389.116	-5.300
389.138	-2.000
389.161	-3.800
389.183	-2.300
389.205	-4.600
389.228	-5.100
389.250	-2.900
389.273	-5.000
389.295	-5.100
389.317	-5.700
389.340	-3.900
389.362	-5.200
389.384	-1.100
389.407	0.000
389.429	-5.800
389.452	-2.300
389.474	-0.300
389.496	-4.400
389.519	-1.100
389.541	-3.300
389.563	-3.700
389.586	-2.600
389.608	-5.000
389.631	-1.100
389.653	-6.800
389.675	-3.000
389.698	-3.900
389.720	-3.100
389.742	-2.100
389.765	-1.100
389.787	-1.900
389.810	-4.100
389.832	-1.400
389.854	-4.200
389.877	-2.400
389.899	-2.100
389.922	-1.900
389.944	-2.000
389.966	-2.600
389.989	-1.300
390.011	0.800
390.033	-1.500
390.056	0.400
390.078	-0.200
390.101	-0.600
390.123	0.400
390.145	-0.100
390.168	1.600
390.190	-2.000
390.212	-0.900
390.235	0.900
390.257	-3.900
390.280	0.600
390.302	0.100
390.324	-2.100
390.347	2.100
390.369	0.700
390.391	-1.600
390.414	0.000
390.436	1.800
390.459	3.200
390.481	4.100
390.503	-0.100
390.526	-0.500
390.548	3.900
390.570	-0.100
390.593	-1.200
390.615	2.100
390.638	0.400
390.660	4.300
390.682	4.000
390.705	1.600
390.727	3.400
390.749	1.700
390.772	6.000
390.794	2.300
390.817	2.300
390.839	2.100
390.861	7.900
390.884	3.700
390.906	5.300
390.928	4.900
390.951	3.400
390.973	7.600
390.996	6.100
391.018	6.800
391.040	5.200
391.063	6.900
391.085	5.800
391.108	8.800
391.130	8.900
391.152	9.200
391.175	7.500
391.197	8.800
391.219	10.200
391.242	7.700
391.264	8.900
391.287	10.500
391.309	9.700
391.331	12.500
391.354	11.100
391.376	12.300
391.398	9.400
391.421	14.700
391.443	10.200
391.466	13.700
391.488	8.300
391.510	11.200
391.533	12.500
391.555	11.800
391.577	13.000
391.600	11.600
391.622	12.900
391.645	12.600
391.667	11.100
391.689	11.200
391.712	16.400
391.734	12.800
391.757	19.700
391.779	12.200
391.801	18.000
391.824	17.800
391.846	18.000
391.868	19.300
391.891	15.800
391.913	20.200
391.936	15.600
391.958	20.200
391.980	19.000
392.003	20.400
392.025	19.700
392.047	18.800
392.070	17.500
392.092	21.200
392.115	20.800
392.137	23.400
392.159	20.500
392.182	22.400
392.204	20.800
392.226	24.600
392.249	19.100
392.271	19.100
392.294	21.600
392.316	18.200
392.338	22.600
392.361	26.600
392.383	24.800
392.405	21.800
392.428	26.500
392.450	27.500
392.473	28.500
392.495	27.800
392.517	25.600
392.540	28.200
392.562	31.800
392.585	24.900
392.607	28.200
392.629	29.500
392.652	33.500
392.674	29.100
392.696	37.100
392.719	24.000
392.741	31.400
392.764	28.400
392.786	35.100
392.808	30.400
392.831	34.100
392.853	36.400
392.875	32.600
392.898	31.100
392.920	34.000
392.943	30.300
392.965	37.400
392.987	35.500
393.010	33.400
393.032	29.400
393.054	39.000
393.077	38.600
393.099	31.800
393.122	38.200
393.144	37.100
393.166	37.300
393.189	33.600
393.211	38.800
393.233	38.300
393.256	37.900
393.278	40.200
393.301	35.900
393.323	38.900
393.345	40.200
393.368	29.900
393.390	42.200
393.412	43.600
393.435	44.200
393.457	38.500
393.480	47.100
393.502	40.800
393.524	43.800
393.547	37.800
393.569	49.800
393.592	43.400
393.614	46.700
393.636	45.700
393.659	44.000
393.681	43.500
393.703	43.900
393.726	47.200
393.748	45.400
393.771	48.200
393.793	44.900
393.815	44.900
393.838	56.700
393.860	45.400
393.882	51.300
393.905	47.500
393.927	49.700
393.950	47.100
393.972	57.600
393.994	49.100
394.017	42.500
394.039	54.900
394.061	48.900
394.084	52.600
394.106	58.000
394.129	53.000
394.151	52.900
394.173	50.900
394.196	48.600
394.218	61.300
394.240	57.700
394.263	49.300
394.285	61.300
394.308	53.500
394.330	39.400
394.352	47.900
394.375	55.300
394.397	51.800
394.419	47.700
394.442	52.700
394.464	49.800
394.487	67.500
394.509	60.400
394.531	62.500
394.554	53.800
394.576	63.600
394.599	55.000
394.621	42.100
394.643	66.500
394.666	62.800
394.688	59.400
394.710	67.700
394.733	71.100
394.755	64.800
394.778	69.900
394.800	72.900
394.822	65.500
394.845	50.000
394.867	70.100
394.889	67.900
394.912	69.100
394.934	68.700
394.957	60.600
394.979	70.800
395.001	63.900
395.024	62.200
395.046	63.700
395.068	62.600
395.091	70.100
395.113	69.600
395.136	57.400
395.158	51.000
395.180	65.600
395.203	52.700
395.225	59.800
395.247	53.300
395.270	62.900
395.292	55.600
395.315	60.900
395.337	51.900
395.359	55.400
395.382	67.000
395.404	59.600
395.427	77.600
395.449	55.000
395.471	74.400
395.494	65.100
395.516	61.200
395.538	56.400
395.561	62.100
395.583	78.000
395.606	62.400
395.628	59.100
395.650	64.400
395.673	70.900
395.695	66.800
395.717	61.000
395.740	58.200
395.762	64.600
395.785	67.300
395.807	70.200
395.829	60.300
395.852	69.100
395.874	60.800
395.896	68.000
395.919	74.500
395.941	58.600
395.964	67.900
395.986	63.900
396.008	60.900
396.031	63.100
396.053	55.700
396.075	62.300
396.098	56.000
396.120	62.600
396.143	58.500
396.165	68.400
396.187	61.900
396.210	65.700
396.232	64.200
396.255	68.800
396.277	63.900
396.299	61.800
396.322	65.600
396.344	67.500
396.366	65.800
396.389	61.300
396.411	53.600
396.434	58.200
396.456	71.500
396.478	62.900
396.501	64.600
396.523	64.400
396.545	61.000
396.568	58.100
396.590	61.400
396.613	61.300
396.635	64.000
396.657	66.700
396.680	57.900
396.702	63.700
396.724	71.800
396.747	44.200
396.769	57.800
396.792	59.800
396.814	64.100
396.836	48.600
396.859	62.300
396.881	63.300
396.903	57.500
396.926	51.200
396.948	54.000
396.971	62.100
396.993	59.400
397.015	52.400
397.038	67.700
397.060	64.400
397.082	67.300
397.105	57.100
397.127	66.800
397.150	61.400
397.172	62.500
397.194	51.400
397.217	52.200
397.239	42.300
397.262	69.800
397.284	72.300
397.306	118.000
397.329	179.600
397.351	197.200
397.373	163.100
397.396	176.400
397.418	73.400
397.441	-30.200
397.463	-90.800
397.485	-202.100
397.508	-219.600
397.530	-212.900
397.552	-103.300
397.575	-41.800
397.597	-32.800
397.620	39.700
397.642	142.400
397.664	192.600
397.687	185.600
397.709	236.200
397.731	349.300
397.754	281.300
397.776	148.000
397.799	270.000
397.821	473.400
397.843	429.200
397.866	568.100
397.888	808.200
397.910	1353.500
397.933	2577.900
397.955	8.700
397.978	0.000
398.000	0.000
398.022	0.000
398.045	0.000
398.067	0.000
398.090	-1847.300
398.112	-2211.300
398.134	-768.200
398.157	-1063.300
398.179	-875.700
398.201	-780.300
398.224	-227.600
398.246	-615.200
398.269	-2635.700
398.291	-2627.300
398.313	-606.400
398.336	791.000
398.358	2922.800
398.380	-4931.500
398.403	-5317.100
398.425	-812.600
398.448	-200.100
398.470	-99.300
398.492	-88.400
398.515	-108.700
398.537	-43.800
398.559	-35.300
398.582	-36.100
398.604	-39.100
398.627	-67.000
398.649	-92.900
398.671	-129.700
398.694	14.300
398.716	97.300
398.738	32.100
398.761	0.600
398.783	8.100
398.806	19.300
398.828	59.300
398.850	41.000
398.873	13.500
398.895	-1.500
398.918	22.500
398.940	154.500
398.962	430.400
398.985	250.500
399.007	40.800
399.029	23.000
399.052	31.400
399.074	84.200
399.097	125.500
399.119	47.200
399.141	23.400
399.164	47.600
399.186	163.200
399.208	576.200
399.231	462.600
399.253	81.100
399.276	27.500
399.298	33.500
399.320	123.200
399.343	270.700
399.365	121.600
399.387	28.900
399.410	52.600
399.432	249.300
399.455	1364.300
399.477	1400.100
399.499	250.900
399.522	39.200
399.544	31.700
399.566	129.400
399.589	342.800
399.611	160.200
399.634	38.400
399.656	43.400
399.678	149.300
399.701	1006.800
399.723	1380.500
399.745	311.900
399.768	37.600
399.790	34.100
399.813	121.500
399.835	390.200
399.857	242.800
399.880	48.000
399.902	26.600
399.925	86.300
399.947	543.400
399.969	953.000
399.992	279.100
400.014	36.100
400.036	14.300
400.059	42.900
400.081	148.500
400.104	133.800
400.126	38.200
400.148	25.500
400.171	41.600
400.193	273.500
400.215	683.600
400.238	292.300
400.260	39.400
400.283	22.600
400.305	26.300
400.327	100.100
400.350	103.300
400.372	33.900
400.394	14.200
400.417	15.200
400.439	87.600
400.462	254.400
400.484	153.600
400.506	27.500
400.529	11.400
400.551	18.800
400.573	36.500
400.596	57.700
400.618	23.500
400.641	27.600
400.663	21.900
400.685	47.100
400.708	142.200
400.730	125.200
400.753	35.000
400.775	19.600
400.797	15.700
400.820	34.500
400.842	46.600
400.864	18.800
400.887	8.000
400.909	11.000
400.932	14.000
400.954	42.400
400.976	42.400
400.999	24.300
401.021	10.500
401.043	25.300
401.066	15.200
401.088	60.200
401.111	38.700
401.133	14.000
401.155	24.400
401.178	37.000
401.200	63.000
401.222	67.000
401.245	38.000
401.267	32.800
401.290	45.200
401.312	66.300
401.334	158.100
401.357	153.100
401.379	58.000
401.401	61.100
401.424	172.500
401.446	364.100
401.469	521.500
401.491	226.900
401.513	57.900
401.536	170.200
401.558	649.800
401.581	1693.200
401.603	1543.500
401.625	328.300
401.648	137.100
401.670	483.500
401.692	1593.700
401.715	3280.400
401.737	1874.100
401.760	240.000
401.782	42.200
401.804	82.200
401.827	215.000
401.849	299.000
401.871	96.300
401.894	26.300
401.916	66.000
401.939	205.100
401.961	478.600
401.983	340.600
402.006	59.100
402.028	13.900
402.050	15.700
402.073	19.900
402.095	24.200
402.118	14.700
402.140	9.300
402.162	28.000
402.185	83.500
402.207	167.500
402.229	115.000
402.252	20.000
402.274	7.100
402.297	8.100
402.319	7.700
402.341	5.900
402.364	8.200
402.386	2.600
402.408	10.900
402.431	27.700
402.453	56.800
402.476	66.000
402.498	20.800
402.520	2.200
402.543	3.800
402.565	7.200
402.588	12.400
402.610	11.900
402.632	5.800
402.655	9.600
402.677	16.600
402.699	49.900
402.722	79.900
402.744	41.300
402.767	7.500
402.789	5.600
402.811	12.200
402.834	23.200
402.856	19.100
402.878	9.300
402.901	11.400
402.923	33.700
402.946	101.300
402.968	191.500
402.990	115.400
403.013	20.500
403.035	8.400
403.057	16.100
403.080	33.500
403.102	39.300
403.125	17.500
403.147	9.400
403.169	39.200
403.192	119.600
403.214	271.600
403.236	196.600
403.259	37.500
403.281	11.100
403.304	21.800
403.326	43.300
403.348	57.900
403.371	29.600
403.393	12.900
403.415	49.400
403.438	143.900
403.460	330.600
403.483	293.900
403.505	60.600
403.527	14.500
403.550	21.800
403.572	49.500
403.595	73.300
403.617	38.200
403.639	12.300
403.662	38.000
403.684	126.000
403.706	318.700
403.729	336.500
403.751	85.200
403.774	13.600
403.796	14.000
403.818	36.600
403.841	63.900
403.863	39.200
403.885	11.300
403.908	23.500
403.930	69.700
403.953	182.600
403.975	232.400
403.997	73.100
404.020	11.300
404.042	11.200
404.064	21.100
404.087	35.800
404.109	26.000
404.132	7.300
404.154	6.200
404.176	27.000
404.199	69.100
404.221	102.200
404.243	39.300
404.266	7.200
404.288	2.300
404.311	8.400
404.333	13.300
404.355	10.900
404.378	5.800
404.400	1.300
404.423	5.300
404.445	17.000
404.467	24.600
404.490	11.400
404.512	-0.700
404.534	2.700
404.557	0.700
404.579	2.100
404.602	1.800
404.624	3.600
404.646	2.600
404.669	1.600
404.691	2.600
404.713	5.600
404.736	4.900
404.758	0.800
404.781	1.200
404.803	0.600
404.825	2.500
404.848	0.900
404.870	0.400
404.892	1.400
404.915	3.600
404.937	3.000
404.960	-4.400
404.982	2.000
405.004	0.700
405.027	5.000
405.049	1.300
405.072	4.900
405.094	2.200
405.116	3.200
405.139	1.100
405.161	2.500
405.183	-1.500
405.206	2.500
405.228	1.800
405.251	-2.800
405.273	6.100
405.295	1.600
405.318	1.100
405.340	3.700
405.362	0.900
405.385	0.900
405.407	0.100
405.430	3.000
405.452	2.900
405.474	3.000
405.497	0.300
405.519	2.900
405.541	-1.800
405.564	0.000
405.586	3.400
405.609	1.600
405.631	1.700
405.653	2.200
405.676	0.400
405.698	-1.800
405.720	1.500
405.743	2.200
405.765	-0.700
405.788	0.100
405.810	-0.200
405.832	1.300
405.855	1.700
405.877	-1.000
405.899	0.200
405.922	-0.100
405.944	0.600
405.967	1.200
405.989	0.200
406.011	1.100
406.034	0.100
406.056	2.100
406.078	0.900
406.101	1.100
406.123	2.600
406.146	0.000
406.168	-0.400
406.190	2.100
406.213	2.800
406.235	2.700
406.258	0.600
406.280	0.600
406.302	0.200
406.325	1.000
406.347	1.000
406.369	1.500
406.392	-0.200
406.414	1.700
406.437	0.300
406.459	-1.300
406.481	2.100
406.504	1.300
406.526	1.300
406.548	1.100
406.571	1.500
406.593	2.600
406.616	2.300
406.638	0.800
406.660	0.200
406.683	2.400
406.705	-0.300
406.727	2.000
406.750	1.700
406.772	0.900
406.795	2.000
406.817	2.200
406.839	0.700
406.862	0.400
406.884	0.600
406.906	1.700
406.929	1.200
406.951	1.500
406.974	2.700
406.996	1.500
407.018	-1.800
407.041	0.600
407.063	0.600
407.086	0.300
407.108	1.700
407.130	1.600
407.153	-1.200
407.175	0.600
407.197	3.100
407.220	-0.100
407.242	2.600
407.265	1.800
407.287	0.900
407.309	-0.400
407.332	2.400
407.354	0.900
407.376	-0.800
407.399	2.500
407.421	1.800
407.444	-0.400
407.466	-0.600
407.488	-0.300
407.511	1.300
407.533	0.000
407.555	3.500
407.578	0.800
407.600	1.900
407.623	-0.500
407.645	-1.200
407.667	-0.600
407.690	1.800
407.712	-1.100
407.734	3.100
407.757	2.200
407.779	-0.400
407.802	-3.100
407.824	-0.100
407.846	0.700
407.869	-0.400
407.891	1.300
407.914	0.900
407.936	1.300
407.958	-0.900
407.981	-0.100
408.003	0.000
408.025	1.300
408.048	1.500
408.070	2.100
408.093	0.300
408.115	-1.700
408.137	1.400
408.160	1.700
408.182	-1.200
408.204	-0.200
408.227	0.300
408.249	0.100
408.272	1.800
408.294	0.100
408.316	1.900
408.339	-0.100
408.361	1.300
408.383	1.100
408.406	0.100
408.428	-0.200
408.451	1.100
408.473	3.400
408.495	0.400
408.518	1.200
408.540	-1.400
408.562	-0.700
408.585	-1.000
408.607	2.400
408.630	1.100
408.652	1.200
408.674	-0.200
408.697	-0.200
408.719	-1.200
408.741	1.900
408.764	0.500
408.786	0.600
408.809	0.600
408.831	1.900
408.853	0.800
408.876	-2.800
408.898	-0.800
408.921	1.100
408.943	-0.700
408.965	3.300
408.988	3.100
409.010	2.100
409.032	-0.400
409.055	-0.100
409.077	0.800
409.100	2.100
409.122	1.600
409.144	0.400
409.167	0.000
409.189	1.700
409.211	0.700
409.234	-2.200
409.256	0.100
409.279	2.100
409.301	1.100
409.323	0.800
409.346	-1.300
409.368	0.100
409.390	0.400
409.413	1.200
409.435	-0.300
