386.542	-11.200
386.565	-14.000
386.587	-14.000
386.610	-11.600
386.632	-10.800
386.654	-19.600
386.677	-18.000
386.699	-14.000
386.721	-15.800
386.744	-17.400
386.766	-17.400
386.789	-15.400
386.811	-19.000
386.833	-19.200
386.856	-20.400
386.878	-24.000
386.900	-15.200
386.923	-20.800
386.945	-22.400
386.968	-23.000
386.990	-22.200
387.012	-28.400
387.035	-27.200
387.057	-28.200
387.079	-33.400
387.102	-29.400
387.124	-36.200
387.147	-36.600
387.169	-30.000
387.191	-36.000
387.214	-35.400
387.236	-36.200
387.259	-38.000
387.281	-37.400
387.303	-38.800
387.326	-40.600
387.348	-47.800
387.370	-39.200
387.393	-47.200
387.415	-36.800
387.438	-46.800
387.460	-45.800
387.482	-40.400
387.505	-42.800
387.527	-47.000
387.549	-57.800
387.572	-42.400
387.594	-55.200
387.617	-48.600
387.639	-47.000
387.661	-50.000
387.684	-62.400
387.706	-50.000
387.728	-60.600
387.751	-56.800
387.773	-50.000
387.796	-56.400
387.818	-56.200
387.840	-51.400
387.863	-52.400
387.885	-51.400
387.907	-57.800
387.930	-51.800
387.952	-64.800
387.975	-52.800
387.997	-55.800
388.019	-52.400
388.042	-57.800
388.064	-56.200
388.086	-62.200
388.109	-54.800
388.131	-63.400
388.154	-52.400
388.176	-52.000
388.198	-64.400
388.221	-57.400
388.243	-66.000
388.266	-50.800
388.288	-58.800
388.310	-55.200
388.333	-60.400
388.355	-52.400
388.377	-67.200
388.400	-51.800
388.422	-56.800
388.445	-61.200
388.467	-59.600
388.489	-58.000
388.512	-57.800
388.534	-57.000
388.556	-54.200
388.579	-59.600
388.601	-62.000
388.624	-66.000
388.646	-57.600
388.668	-60.600
388.691	-58.000
388.713	-63.000
388.735	-62.600
388.758	-57.400
388.780	-68.200
388.803	-62.600
388.825	-60.600
388.847	-53.800
388.870	-62.400
388.892	-61.600
388.914	-63.600
388.937	-59.000
388.959	-54.800
388.982	-59.200
389.004	-55.800
389.026	-57.000
389.049	-60.200
389.071	-62.200
389.094	-60.600
389.116	-56.800
389.138	-60.800
389.161	-60.200
389.183	-76.600
389.205	-60.800
389.228	-69.600
389.250	-61.400
389.273	-57.600
389.295	-59.200
389.317	-60.400
389.340	-58.200
389.362	-57.600
389.384	-68.200
389.407	-61.600
389.429	-58.200
389.452	-60.400
389.474	-54.600
389.496	-59.000
389.519	-58.000
389.541	-58.000
389.563	-52.000
389.586	-59.400
389.608	-56.800
389.631	-48.800
389.653	-54.400
389.675	-50.000
389.698	-46.200
389.720	-50.200
389.742	-58.200
389.765	-48.800
389.787	-53.200
389.810	-50.400
389.832	-45.000
389.854	-41.600
389.877	-41.400
389.899	-43.000
389.922	-45.600
389.944	-41.600
389.966	-49.400
389.989	-51.800
390.011	-42.200
390.033	-46.000
390.056	-40.400
390.078	-46.000
390.101	-45.600
390.123	-45.400
390.145	-40.000
390.168	-39.800
390.190	-35.000
390.212	-46.000
390.235	-44.800
390.257	-28.200
390.280	-37.200
390.302	-50.400
390.324	-38.400
390.347	-45.600
390.369	-36.400
390.391	-44.000
390.414	-38.000
390.436	-33.000
390.459	-46.000
390.481	-44.600
390.503	-33.400
390.526	-38.000
390.548	-39.200
390.570	-38.600
390.593	-41.000
390.615	-36.000
390.638	-51.200
390.660	-40.800
390.682	-41.600
390.705	-38.600
390.727	-43.200
390.749	-42.200
390.772	-45.000
390.794	-46.600
390.817	-43.800
390.839	-40.200
390.861	-53.200
390.884	-47.000
390.906	-42.800
390.928	-49.600
390.951	-41.600
390.973	-51.200
390.996	-50.000
391.018	-52.000
391.040	-40.800
391.063	-51.200
391.085	-40.000
391.108	-49.600
391.130	-44.600
391.152	-49.800
391.175	-52.000
391.197	-43.200
391.219	-42.400
391.242	-43.600
391.264	-48.400
391.287	-47.600
391.309	-48.200
391.331	-46.200
391.354	-40.200
391.376	-42.400
391.398	-48.000
391.421	-41.200
391.443	-42.200
391.466	-40.400
391.488	-41.200
391.510	-46.400
391.533	-36.600
391.555	-45.000
391.577	-42.400
391.600	-36.200
391.622	-39.800
391.645	-42.600
391.667	-36.000
391.689	-29.400
391.712	-31.200
391.734	-33.800
391.757	-42.200
391.779	-36.600
391.801	-36.600
391.824	-24.600
391.846	-37.800
391.868	-41.000
391.891	-33.200
391.913	-38.600
391.936	-19.000
391.958	-32.800
391.980	-24.600
392.003	-35.000
392.025	-26.000
392.047	-26.600
392.070	-23.600
392.092	-29.000
392.115	-25.000
392.137	-25.600
392.159	-25.000
392.182	-31.400
392.204	-26.800
392.226	-35.000
392.249	-31.400
392.271	-33.000
392.294	-31.400
392.316	-29.200
392.338	-35.400
392.361	-30.200
392.383	-28.400
392.405	-37.000
392.428	-35.200
392.450	-37.400
392.473	-25.600
392.495	-31.000
392.517	-39.400
392.540	-41.800
392.562	-53.800
392.585	-39.200
392.607	-42.600
392.629	-43.600
392.652	-46.800
392.674	-37.200
392.696	-52.200
392.719	-46.000
392.741	-42.800
392.764	-49.000
392.786	-49.800
392.808	-49.200
392.831	-49.000
392.853	-54.400
392.875	-50.000
392.898	-55.800
392.920	-54.200
392.943	-51.200
392.965	-58.800
392.987	-45.600
393.010	-59.800
393.032	-49.200
393.054	-52.200
393.077	-56.400
393.099	-50.400
393.122	-56.600
393.144	-53.000
393.166	-44.200
393.189	-55.600
393.211	-49.800
393.233	-53.400
393.256	-50.200
393.278	-51.400
393.301	-46.600
393.323	-47.000
393.345	-61.000
393.368	-45.400
393.390	-58.600
393.412	-56.000
393.435	-54.200
393.457	-48.200
393.480	-47.800
393.502	-55.200
393.524	-56.600
393.547	-42.200
393.569	-47.400
393.592	-48.600
393.614	-56.600
393.636	-52.400
393.659	-44.800
393.681	-39.800
393.703	-49.200
393.726	-47.600
393.748	-50.600
393.771	-42.000
393.793	-49.800
393.815	-43.800
393.838	-54.400
393.860	-43.800
393.882	-50.600
393.905	-48.800
393.927	-45.000
393.950	-50.000
393.972	-60.800
393.994	-60.000
394.017	-66.200
394.039	-70.600
394.061	-69.000
394.084	-59.600
394.106	-53.600
394.129	-69.000
394.151	-65.800
394.173	-68.800
394.196	-58.800
394.218	-61.600
394.240	-84.200
394.263	-80.000
394.285	-84.600
394.308	-84.000
394.330	-76.600
394.352	-83.200
394.375	-106.800
394.397	-74.000
394.419	-76.800
394.442	-87.000
394.464	-98.400
394.487	-91.800
394.509	-73.600
394.531	-85.800
394.554	-90.400
394.576	-95.400
394.599	-88.400
394.621	-97.400
394.643	-88.600
394.666	-92.000
394.688	-90.600
394.710	-101.800
394.733	-93.200
394.755	-103.000
394.778	-91.600
394.800	-92.000
394.822	-102.800
394.845	-86.000
394.867	-106.000
394.889	-105.400
394.912	-105.800
394.934	-102.800
394.957	-100.400
394.979	-114.600
395.001	-119.600
395.024	-112.800
395.046	-121.600
395.068	-102.600
395.091	-120.600
395.113	-124.400
395.136	-105.600
395.158	-134.000
395.180	-139.800
395.203	-117.600
395.225	-122.000
395.247	-154.800
395.270	-163.000
395.292	-145.000
395.315	-145.800
395.337	-149.800
395.359	-159.400
395.382	-165.600
395.404	-157.200
395.427	-168.800
395.449	-170.400
395.471	-153.000
395.494	-172.200
395.516	-168.400
395.538	-160.400
395.561	-155.200
395.583	-142.800
395.606	-124.200
395.628	-108.400
395.650	-108.600
395.673	-107.800
395.695	-108.800
395.717	-84.200
395.740	-88.400
395.762	-101.000
395.785	-88.200
395.807	-100.000
395.829	-86.400
395.852	-101.800
395.874	-94.400
395.896	-79.200
395.919	-100.800
395.941	-93.200
395.964	-88.800
395.986	-82.800
396.008	-78.400
396.031	-105.800
396.053	-90.400
396.075	-86.000
396.098	-75.400
396.120	-89.400
396.143	-84.000
396.165	-93.600
396.187	-80.800
396.210	-78.400
396.232	-87.000
396.255	-84.000
396.277	-86.000
396.299	-82.800
396.322	-95.800
396.344	-97.400
396.366	-93.400
396.389	-84.000
396.411	-97.600
396.434	-103.000
396.456	-116.000
396.478	-87.200
396.501	-103.600
396.523	-119.000
396.545	-104.400
396.568	-97.000
396.590	-104.200
396.613	-92.400
396.635	-105.000
396.657	-113.200
396.680	-110.000
396.702	-117.800
396.724	-119.600
396.747	-123.600
396.769	-142.600
396.792	-121.000
396.814	-116.000
396.836	-113.400
396.859	-122.000
396.881	-157.400
396.903	-128.400
396.926	-127.800
396.948	-148.800
396.971	-151.000
396.993	-133.200
397.015	-152.800
397.038	-137.000
397.060	-123.800
397.082	-96.200
397.105	-56.400
397.127	-83.000
397.150	-280.400
397.172	-382.600
397.194	-468.600
397.217	-569.400
397.239	-746.000
397.262	-1047.800
397.284	-1189.000
397.306	-1416.000
397.329	-1612.400
397.351	-1642.200
397.373	-1610.200
397.396	-1581.800
397.418	-1546.200
397.441	-1427.800
397.463	-1372.000
397.485	-1769.000
397.508	-1913.000
397.530	-1854.400
397.552	-1816.200
397.575	-1947.000
397.597	-2083.400
397.620	-2088.000
397.642	-1983.600
397.664	-1929.000
397.687	-2287.400
397.709	-2497.200
397.731	-2667.200
397.754	-3186.400
397.776	-3471.000
397.799	-3609.400
397.821	-3549.200
397.843	-3972.800
397.866	-4032.800
397.888	-335.000
397.910	0.000
397.933	0.000
397.955	0.000
397.978	0.000
398.000	0.000
398.022	0.000
398.045	0.000
398.067	0.000
398.090	0.000
398.112	0.000
398.134	-44.600
398.157	-668.000
398.179	-7917.200
398.201	-8851.000
398.224	-7227.200
398.246	-6005.600
398.269	-5355.600
398.291	-4974.600
398.313	-4037.400
398.336	-2559.400
398.358	-1757.800
398.380	-1657.600
398.403	-1725.200
398.425	-1517.600
398.448	-1100.800
398.470	-1038.200
398.492	-1040.800
398.515	-805.600
398.537	-761.800
398.559	-724.600
398.582	-552.200
398.604	-275.800
398.627	-149.400
398.649	-84.000
398.671	153.400
398.694	508.800
398.716	390.600
398.738	36.200
398.761	-62.200
398.783	79.800
398.806	315.600
398.828	348.200
398.850	105.600
398.873	7.000
398.895	251.600
398.918	1452.000
398.940	3453.600
398.962	3186.200
398.985	1009.000
399.007	127.800
399.029	155.600
399.052	681.400
399.074	1192.400
399.097	834.800
399.119	366.200
399.141	506.000
399.164	2058.200
399.186	5334.200
399.208	5837.000
399.231	2301.600
399.253	389.400
399.276	435.800
399.298	1699.800
399.320	3176.200
399.343	2211.800
399.365	619.000
399.387	466.800
399.410	2572.000
399.432	8883.200
399.455	12525.600
399.477	6447.400
399.499	1283.000
399.522	317.000
399.544	868.400
399.566	2092.000
399.589	1996.400
399.611	713.200
399.634	294.200
399.656	1252.600
399.678	5353.600
399.701	9893.600
399.723	6285.800
399.745	1415.800
399.768	286.000
399.790	953.200
399.813	2757.000
399.835	3327.200
399.857	1500.600
399.880	396.200
399.902	859.400
399.925	3905.000
399.947	8269.000
399.969	6431.200
399.992	1743.800
400.014	259.400
400.036	420.000
400.059	1278.400
400.081	1718.600
400.104	858.600
400.126	222.400
400.148	453.400
400.171	2430.000
400.193	6335.800
400.215	6297.600
400.238	2142.200
400.260	313.800
400.283	199.400
400.305	785.800
400.327	1454.200
400.350	959.200
400.372	260.200
400.394	200.200
400.417	946.400
400.439	2841.000
400.462	3430.800
400.484	1348.800
400.506	190.400
400.529	92.800
400.551	364.200
400.573	738.600
400.596	522.000
400.618	95.600
400.641	20.800
400.663	395.200
400.685	1736.800
400.708	2735.600
400.730	1414.000
400.753	201.200
400.775	-3.400
400.797	139.800
400.820	470.000
400.842	472.000
400.864	147.400
400.887	22.200
400.909	212.800
400.932	1006.200
400.954	1911.800
400.976	1226.400
400.999	243.000
401.021	14.600
401.043	99.600
401.066	325.200
401.088	421.600
401.111	177.800
401.133	37.200
401.155	98.400
401.178	589.600
401.200	1344.200
401.222	1084.800
401.245	285.200
401.267	61.200
401.290	180.800
401.312	646.800
401.334	976.800
401.357	490.000
401.379	114.800
401.401	303.000
401.424	1906.800
401.446	5088.800
401.469	4917.600
401.491	1547.000
401.513	198.400
401.536	343.800
401.558	1568.200
401.581	2950.400
401.603	1700.200
401.625	359.400
401.648	125.600
401.670	236.600
401.692	766.200
401.715	1029.000
401.737	403.800
401.760	53.800
401.782	5.800
401.804	71.400
401.827	204.600
401.849	161.000
401.871	34.400
401.894	-20.400
401.916	-11.400
401.939	21.400
401.961	52.200
401.983	8.400
402.006	-20.400
402.028	-17.400
402.050	8.800
402.073	38.200
402.095	44.600
402.118	4.600
402.140	-14.800
402.162	15.200
402.185	128.800
402.207	256.200
402.229	167.000
402.252	30.800
402.274	9.800
402.297	37.200
402.319	118.200
402.341	146.400
402.364	59.200
402.386	10.600
402.408	26.000
402.431	122.400
402.453	255.200
402.476	225.600
402.498	81.600
402.520	19.000
402.543	20.600
402.565	99.200
402.588	272.000
402.610	263.800
402.632	137.400
402.655	95.600
402.677	179.600
402.699	459.400
402.722	560.200
402.744	295.800
402.767	106.200
402.789	53.600
402.811	31.000
402.834	35.200
402.856	51.000
402.878	99.000
402.901	135.600
402.923	179.200
402.946	285.600
402.968	217.200
402.990	62.400
403.013	65.400
403.035	58.200
403.057	65.000
403.080	117.600
403.102	118.400
403.125	56.200
403.147	27.600
403.169	58.400
403.192	170.600
403.214	226.400
403.236	102.400
403.259	20.800
403.281	3.000
403.304	31.200
403.326	66.200
403.348	73.200
403.371	28.200
403.393	8.800
403.415	32.400
403.438	117.400
403.460	209.800
403.483	123.200
403.505	26.600
403.527	3.600
403.550	14.600
403.572	53.200
403.595	57.600
403.617	23.000
403.639	5.200
403.662	12.800
403.684	67.200
403.706	145.400
403.729	104.400
403.751	22.600
403.774	2.200
403.796	9.400
403.818	30.600
403.841	40.600
403.863	20.800
403.885	0.000
403.908	2.000
403.930	31.200
403.953	77.200
403.975	59.000
403.997	11.400
404.020	-0.800
404.042	3.800
404.064	6.600
404.087	18.400
404.109	8.400
404.132	-1.200
404.154	-2.400
404.176	7.000
404.199	28.400
404.221	28.000
404.243	6.200
404.266	-6.000
404.288	-1.000
404.311	-0.400
404.333	0.600
404.355	-1.000
404.378	-3.000
404.400	-2.200
404.423	-2.400
404.445	5.400
404.467	5.600
404.490	2.000
404.512	-2.200
404.534	-2.200
404.557	-0.600
404.579	-2.600
404.602	-1.600
404.624	-5.200
404.646	-1.600
404.669	-2.200
404.691	2.200
404.713	-1.000
404.736	-1.600
404.758	-1.200
404.781	-4.800
404.803	-3.000
404.825	-2.200
404.848	-1.800
404.870	-4.800
404.892	-1.600
404.915	-5.200
404.937	-7.600
404.960	-3.600
404.982	-4.400
405.004	-2.600
405.027	1.400
405.049	-4.800
405.072	-1.800
405.094	-4.200
405.116	-5.000
405.139	-6.600
405.161	-1.200
405.183	-0.400
405.206	-5.600
405.228	-4.400
405.251	-5.400
405.273	-2.400
405.295	-3.800
405.318	1.400
405.340	-0.600
405.362	-6.600
405.385	-4.400
405.407	-3.800
405.430	-8.800
405.452	-7.600
405.474	-1.600
405.497	-7.000
405.519	-3.800
405.541	-6.800
405.564	-5.000
405.586	-1.800
405.609	-2.800
405.631	-5.800
405.653	-5.000
405.676	-5.000
405.698	-3.400
405.720	-4.600
405.743	-4.000
405.765	-5.400
405.788	-3.000
405.810	-2.400
405.832	-1.800
405.855	-2.800
405.877	-3.600
405.899	-4.800
405.922	-4.400
405.944	-4.800
405.967	-4.800
405.989	0.000
406.011	-2.200
406.034	-8.000
406.056	-3.800
406.078	-3.800
406.101	-1.200
406.123	-2.600
406.146	-3.800
406.168	-2.200
406.190	0.000
406.213	-2.400
406.235	-4.800
406.258	-2.600
406.280	-3.800
406.302	-0.800
406.325	-3.000
406.347	-1.600
406.369	-5.600
406.392	-4.400
406.414	-3.400
406.437	-4.200
406.459	-4.400
406.481	-3.800
406.504	-3.400
406.526	-4.000
406.548	-4.800
406.571	-3.200
406.593	-3.600
406.616	-1.000
406.638	-1.000
406.660	-3.000
406.683	-4.800
406.705	-1.600
406.727	-2.000
406.750	-4.600
406.772	-2.800
406.795	-4.200
406.817	-1.000
406.839	-2.200
406.862	-7.200
406.884	-3.000
406.906	-2.800
406.929	-4.000
406.951	-3.000
406.974	-1.200
406.996	-3.600
407.018	-2.800
407.041	-2.000
407.063	-1.400
407.086	-5.200
407.108	-1.600
407.130	-3.600
407.153	-2.800
407.175	-2.000
407.197	-1.000
407.220	-3.400
407.242	-4.000
407.265	-3.800
407.287	-4.600
407.309	-3.600
407.332	-4.200
407.354	-4.000
407.376	-3.000
407.399	-2.600
407.421	-2.200
407.444	-0.800
407.466	-2.800
407.488	-4.400
407.511	-1.600
407.533	-1.000
407.555	-2.800
407.578	-0.200
407.600	-1.600
407.623	1.000
407.645	-2.200
407.667	-3.400
407.690	-3.400
407.712	-2.000
407.734	-1.200
407.757	-1.200
407.779	-3.600
407.802	-2.400
407.824	-5.800
407.846	-4.200
407.869	-3.400
407.891	-4.400
407.914	-2.000
407.936	-1.400
407.958	-2.000
407.981	-4.200
408.003	-4.200
408.025	-5.800
408.048	-3.200
408.070	-1.600
408.093	-5.600
408.115	-1.600
408.137	-1.800
408.160	-2.000
408.182	-3.400
408.204	-3.600
408.227	-1.800
408.249	-2.800
408.272	-5.000
408.294	-2.400
408.316	-3.600
408.339	-2.400
408.361	-3.000
408.383	-2.400
408.406	-0.800
408.428	-4.800
408.451	-0.400
408.473	-5.400
408.495	-5.600
408.518	-0.600
408.540	-3.400
408.562	-5.400
408.585	0.200
408.607	-3.000
408.630	-4.800
408.652	-1.400
408.674	-4.000
408.697	-2.800
408.719	-3.000
408.741	-3.800
408.764	-3.400
408.786	-3.600
408.809	-2.800
408.831	1.800
408.853	-2.400
408.876	-3.000
408.898	-2.800
408.921	-3.200
408.943	-1.400
408.965	-4.600
408.988	-2.400
409.010	-1.400
409.032	-4.000
409.055	-2.400
409.077	-4.200
409.100	-3.800
409.122	-0.200
409.144	0.600
409.167	-1.200
409.189	-3.600
409.211	-2.200
409.234	-3.600
409.256	-3.600
409.279	-4.000
409.301	0.000
409.323	-2.000
409.346	-2.600
409.368	-3.600
409.390	-3.200
409.413	-1.000
409.435	-1.400
