386.542	-10.000
386.565	-10.000
386.587	-9.000
386.610	-11.000
386.632	-8.000
386.654	-19.000
386.677	-13.000
386.699	-14.000
386.721	-16.000
386.744	-17.000
386.766	-17.000
386.789	-14.000
386.811	-16.000
386.833	-15.000
386.856	-21.000
386.878	-25.000
386.900	-16.000
386.923	-23.000
386.945	-24.000
386.968	-21.000
386.990	-24.000
387.012	-29.000
387.035	-28.000
387.057	-27.000
387.079	-34.000
387.102	-30.000
387.124	-37.000
387.147	-34.000
387.169	-36.000
387.191	-36.000
387.214	-40.000
387.236	-41.000
387.259	-40.000
387.281	-43.000
387.303	-45.000
387.326	-43.000
387.348	-52.000
387.370	-45.000
387.393	-53.000
387.415	-42.000
387.438	-55.000
387.460	-55.000
387.482	-51.000
387.505	-51.000
387.527	-54.000
387.549	-66.000
387.572	-48.000
387.594	-62.000
387.617	-56.000
387.639	-55.000
387.661	-61.000
387.684	-72.000
387.706	-60.000
387.728	-75.000
387.751	-64.000
387.773	-58.000
387.796	-68.000
387.818	-67.000
387.840	-67.000
387.863	-68.000
387.885	-67.000
387.907	-72.000
387.930	-63.000
387.952	-78.000
387.975	-61.000
387.997	-64.000
388.019	-63.000
388.042	-71.000
388.064	-72.000
388.086	-72.000
388.109	-66.000
388.131	-76.000
388.154	-71.000
388.176	-63.000
388.198	-75.000
388.221	-66.000
388.243	-79.000
388.266	-69.000
388.288	-73.000
388.310	-69.000
388.333	-72.000
388.355	-64.000
388.377	-82.000
388.400	-62.000
388.422	-68.000
388.445	-70.000
388.467	-73.000
388.489	-67.000
388.512	-72.000
388.534	-69.000
388.556	-64.000
388.579	-71.000
388.601	-75.000
388.624	-76.000
388.646	-67.000
388.668	-72.000
388.691	-68.000
388.713	-74.000
388.735	-77.000
388.758	-68.000
388.780	-78.000
388.803	-72.000
388.825	-73.000
388.847	-60.000
388.870	-73.000
388.892	-76.000
388.914	-80.000
388.937	-72.000
388.959	-70.000
388.982	-72.000
389.004	-66.000
389.026	-68.000
389.049	-67.000
389.071	-74.000
389.094	-68.000
389.116	-67.000
389.138	-71.000
389.161	-77.000
389.183	-83.000
389.205	-65.000
389.228	-75.000
389.250	-72.000
389.273	-64.000
389.295	-62.000
389.317	-68.000
389.340	-59.000
389.362	-68.000
389.384	-78.000
389.407	-71.000
389.429	-70.000
389.452	-71.000
389.474	-64.000
389.496	-65.000
389.519	-71.000
389.541	-70.000
389.563	-58.000
389.586	-73.000
389.608	-68.000
389.631	-59.000
389.653	-66.000
389.675	-63.000
389.698	-58.000
389.720	-57.000
389.742	-65.000
389.765	-59.000
389.787	-61.000
389.810	-57.000
389.832	-60.000
389.854	-51.000
389.877	-46.000
389.899	-53.000
389.922	-55.000
389.944	-57.000
389.966	-58.000
389.989	-63.000
390.011	-51.000
390.033	-57.000
390.056	-45.000
390.078	-52.000
390.101	-54.000
390.123	-48.000
390.145	-48.000
390.168	-49.000
390.190	-43.000
390.212	-55.000
390.235	-50.000
390.257	-34.000
390.280	-38.000
390.302	-61.000
390.324	-45.000
390.347	-59.000
390.369	-38.000
390.391	-51.000
390.414	-44.000
390.436	-38.000
390.459	-51.000
390.481	-46.000
390.503	-39.000
390.526	-38.000
390.548	-38.000
390.570	-46.000
390.593	-51.000
390.615	-48.000
390.638	-57.000
390.660	-43.000
390.682	-49.000
390.705	-44.000
390.727	-60.000
390.749	-47.000
390.772	-44.000
390.794	-49.000
390.817	-48.000
390.839	-45.000
390.861	-59.000
390.884	-47.000
390.906	-53.000
390.928	-54.000
390.951	-51.000
390.973	-55.000
390.996	-59.000
391.018	-58.000
391.040	-49.000
391.063	-54.000
391.085	-47.000
391.108	-64.000
391.130	-58.000
391.152	-58.000
391.175	-62.000
391.197	-52.000
391.219	-48.000
391.242	-54.000
391.264	-57.000
391.287	-52.000
391.309	-61.000
391.331	-60.000
391.354	-49.000
391.376	-49.000
391.398	-67.000
391.421	-57.000
391.443	-55.000
391.466	-61.000
391.488	-51.000
391.510	-54.000
391.533	-49.000
391.555	-55.000
391.577	-51.000
391.600	-45.000
391.622	-51.000
391.645	-52.000
391.667	-45.000
391.689	-40.000
391.712	-44.000
391.734	-42.000
391.757	-55.000
391.779	-44.000
391.801	-44.000
391.824	-29.000
391.846	-53.000
391.868	-50.000
391.891	-45.000
391.913	-51.000
391.936	-30.000
391.958	-32.000
391.980	-32.000
392.003	-41.000
392.025	-34.000
392.047	-35.000
392.070	-28.000
392.092	-35.000
392.115	-32.000
392.137	-33.000
392.159	-28.000
392.182	-40.000
392.204	-30.000
392.226	-39.000
392.249	-28.000
392.271	-35.000
392.294	-34.000
392.316	-33.000
392.338	-41.000
392.361	-32.000
392.383	-28.000
392.405	-39.000
392.428	-36.000
392.450	-29.000
392.473	-31.000
392.495	-23.000
392.517	-42.000
392.540	-38.000
392.562	-54.000
392.585	-34.000
392.607	-43.000
392.629	-40.000
392.652	-35.000
392.674	-38.000
392.696	-49.000
392.719	-47.000
392.741	-48.000
392.764	-45.000
392.786	-54.000
392.808	-54.000
392.831	-45.000
392.853	-63.000
392.875	-55.000
392.898	-56.000
392.920	-52.000
392.943	-54.000
392.965	-61.000
392.987	-47.000
393.010	-61.000
393.032	-51.000
393.054	-59.000
393.077	-58.000
393.099	-52.000
393.122	-60.000
393.144	-61.000
393.166	-54.000
393.189	-68.000
393.211	-59.000
393.233	-63.000
393.256	-65.000
393.278	-68.000
393.301	-55.000
393.323	-60.000
393.345	-76.000
393.368	-53.000
393.390	-71.000
393.412	-66.000
393.435	-60.000
393.457	-60.000
393.480	-61.000
393.502	-66.000
393.524	-55.000
393.547	-45.000
393.569	-56.000
393.592	-68.000
393.614	-59.000
393.636	-59.000
393.659	-53.000
393.681	-50.000
393.703	-56.000
393.726	-62.000
393.748	-59.000
393.771	-43.000
393.793	-65.000
393.815	-57.000
393.838	-61.000
393.860	-43.000
393.882	-58.000
393.905	-53.000
393.927	-52.000
393.950	-53.000
393.972	-64.000
393.994	-76.000
394.017	-72.000
394.039	-59.000
394.061	-81.000
394.084	-58.000
394.106	-55.000
394.129	-67.000
394.151	-71.000
394.173	-55.000
394.196	-57.000
394.218	-69.000
394.240	-80.000
394.263	-79.000
394.285	-83.000
394.308	-83.000
394.330	-78.000
394.352	-83.000
394.375	-99.000
394.397	-65.000
394.419	-62.000
394.442	-69.000
394.464	-86.000
394.487	-78.000
394.509	-79.000
394.531	-95.000
394.554	-80.000
394.576	-83.000
394.599	-78.000
394.621	-91.000
394.643	-75.000
394.666	-81.000
394.688	-94.000
394.710	-83.000
394.733	-86.000
394.755	-94.000
394.778	-76.000
394.800	-79.000
394.822	-86.000
394.845	-83.000
394.867	-101.000
394.889	-95.000
394.912	-109.000
394.934	-98.000
394.957	-107.000
394.979	-121.000
395.001	-114.000
395.024	-111.000
395.046	-126.000
395.068	-112.000
395.091	-122.000
395.113	-132.000
395.136	-120.000
395.158	-126.000
395.180	-143.000
395.203	-138.000
395.225	-152.000
395.247	-154.000
395.270	-181.000
395.292	-167.000
395.315	-165.000
395.337	-162.000
395.359	-188.000
395.382	-183.000
395.404	-171.000
395.427	-193.000
395.449	-184.000
395.471	-167.000
395.494	-177.000
395.516	-178.000
395.538	-151.000
395.561	-154.000
395.583	-145.000
395.606	-133.000
395.628	-126.000
395.650	-124.000
395.673	-115.000
395.695	-129.000
395.717	-94.000
395.740	-90.000
395.762	-110.000
395.785	-102.000
395.807	-116.000
395.829	-94.000
395.852	-120.000
395.874	-89.000
395.896	-84.000
395.919	-116.000
395.941	-92.000
395.964	-89.000
395.986	-86.000
396.008	-91.000
396.031	-108.000
396.053	-93.000
396.075	-92.000
396.098	-81.000
396.120	-97.000
396.143	-90.000
396.165	-96.000
396.187	-80.000
396.210	-88.000
396.232	-89.000
396.255	-90.000
396.277	-84.000
396.299	-80.000
396.322	-96.000
396.344	-94.000
396.366	-85.000
396.389	-88.000
396.411	-99.000
396.434	-103.000
396.456	-112.000
396.478	-83.000
396.501	-94.000
396.523	-122.000
396.545	-99.000
396.568	-96.000
396.590	-95.000
396.613	-96.000
396.635	-97.000
396.657	-117.000
396.680	-123.000
396.702	-120.000
396.724	-136.000
396.747	-122.000
396.769	-134.000
396.792	-137.000
396.814	-118.000
396.836	-123.000
396.859	-124.000
396.881	-145.000
396.903	-136.000
396.926	-141.000
396.948	-148.000
396.971	-153.000
396.993	-142.000
397.015	-181.000
397.038	-172.000
397.060	-149.000
397.082	-110.000
397.105	-130.000
397.127	-169.000
397.150	-318.000
397.172	-451.000
397.194	-593.000
397.217	-726.000
397.239	-817.000
397.262	-1161.000
397.284	-1287.000
397.306	-1522.000
397.329	-1667.000
397.351	-1672.000
397.373	-1652.000
397.396	-1653.000
397.418	-1670.000
397.441	-1644.000
397.463	-1619.000
397.485	-1898.000
397.508	-2060.000
397.530	-1979.000
397.552	-2028.000
397.575	-2155.000
397.597	-2304.000
397.620	-2396.000
397.642	-2358.000
397.664	-2388.000
397.687	-2915.000
397.709	-3362.000
397.731	-3404.000
397.754	-3495.000
397.776	-3566.000
397.799	-3953.000
397.821	-4433.000
397.843	-5431.000
397.866	-6370.000
397.888	-1264.000
397.910	0.000
397.933	0.000
397.955	0.000
397.978	0.000
398.000	0.000
398.022	0.000
398.045	0.000
398.067	0.000
398.090	0.000
398.112	0.000
398.134	0.000
398.157	-1085.000
398.179	-8264.000
398.201	-9041.000
398.224	-7485.000
398.246	-6065.000
398.269	-5187.000
398.291	-4358.000
398.313	-3559.000
398.336	-2523.000
398.358	-2001.000
398.380	-1822.000
398.403	-1683.000
398.425	-1406.000
398.448	-1038.000
398.470	-964.000
398.492	-923.000
398.515	-744.000
398.537	-694.000
398.559	-607.000
398.582	-432.000
398.604	-231.000
398.627	-144.000
398.649	-101.000
398.671	170.000
398.694	569.000
398.716	478.000
398.738	86.000
398.761	-35.000
398.783	97.000
398.806	324.000
398.828	365.000
398.850	140.000
398.873	35.000
398.895	253.000
398.918	1448.000
398.940	3418.000
398.962	3172.000
398.985	1054.000
399.007	143.000
399.029	164.000
399.052	679.000
399.074	1188.000
399.097	860.000
399.119	362.000
399.141	527.000
399.164	2104.000
399.186	5431.000
399.208	5959.000
399.231	2418.000
399.253	429.000
399.276	459.000
399.298	1677.000
399.320	3113.000
399.343	2252.000
399.365	674.000
399.387	509.000
399.410	2681.000
399.432	9050.000
399.455	12828.000
399.477	6821.000
399.499	1431.000
399.522	349.000
399.544	882.000
399.566	2122.000
399.589	2064.000
399.611	782.000
399.634	328.000
399.656	1309.000
399.678	5394.000
399.701	9898.000
399.723	6428.000
399.745	1484.000
399.768	303.000
399.790	967.000
399.813	2753.000
399.835	3344.000
399.857	1547.000
399.880	424.000
399.902	872.000
399.925	3838.000
399.947	8255.000
399.969	6564.000
399.992	1863.000
400.014	277.000
400.036	404.000
400.059	1174.000
400.081	1580.000
400.104	820.000
400.126	228.000
400.148	424.000
400.171	2285.000
400.193	5921.000
400.215	6005.000
400.238	2111.000
400.260	310.000
400.283	181.000
400.305	715.000
400.327	1286.000
400.350	869.000
400.372	240.000
400.394	141.000
400.417	658.000
400.439	2037.000
400.462	2635.000
400.484	1122.000
400.506	156.000
400.529	61.000
400.551	248.000
400.573	593.000
400.596	450.000
400.618	78.000
400.641	-9.000
400.663	277.000
400.685	1216.000
400.708	2028.000
400.730	1127.000
400.753	178.000
400.775	-3.000
400.797	122.000
400.820	396.000
400.842	433.000
400.864	159.000
400.887	3.000
400.909	30.000
400.932	244.000
400.954	514.000
400.976	348.000
400.999	69.000
401.021	66.000
401.043	456.000
401.066	1503.000
401.088	1964.000
401.111	882.000
401.133	142.000
401.155	91.000
401.178	519.000
401.200	1149.000
401.222	908.000
401.245	300.000
401.267	267.000
401.290	1357.000
401.312	4834.000
401.334	7247.000
401.357	3849.000
401.379	866.000
401.401	331.000
401.424	1135.000
401.446	3456.000
401.469	3885.000
401.491	1451.000
401.513	216.000
401.536	136.000
401.558	452.000
401.581	811.000
401.603	516.000
401.625	94.000
401.648	4.000
401.670	14.000
401.692	92.000
401.715	101.000
401.737	16.000
401.760	-11.000
401.782	-34.000
401.804	-14.000
401.827	11.000
401.849	14.000
401.871	-15.000
401.894	-24.000
401.916	16.000
401.939	165.000
401.961	319.000
401.983	173.000
402.006	19.000
402.028	-17.000
402.050	-22.000
402.073	-28.000
402.095	-14.000
402.118	-9.000
402.140	-2.000
402.162	44.000
402.185	254.000
402.207	538.000
402.229	387.000
402.252	91.000
402.274	9.000
402.297	0.000
402.319	4.000
402.341	2.000
402.364	2.000
402.386	6.000
402.408	51.000
402.431	278.000
402.453	658.000
402.476	591.000
402.498	175.000
402.520	10.000
402.543	7.000
402.565	4.000
402.588	10.000
402.610	25.000
402.632	35.000
402.655	85.000
402.677	323.000
402.699	889.000
402.722	1060.000
402.744	494.000
402.767	116.000
402.789	37.000
402.811	19.000
402.834	4.000
402.856	8.000
402.878	8.000
402.901	33.000
402.923	169.000
402.946	553.000
402.968	705.000
402.990	317.000
403.013	48.000
403.035	8.000
403.057	2.000
403.080	10.000
403.102	11.000
403.125	3.000
403.147	23.000
403.169	130.000
403.192	474.000
403.214	749.000
403.236	413.000
403.259	86.000
403.281	2.000
403.304	7.000
403.326	0.000
403.348	7.000
403.371	1.000
403.393	10.000
403.415	85.000
403.438	361.000
403.460	683.000
403.483	455.000
403.505	101.000
403.527	11.000
403.550	3.000
403.572	7.000
403.595	1.000
403.617	2.000
403.639	4.000
403.662	46.000
403.684	226.000
403.706	495.000
403.729	403.000
403.751	106.000
403.774	8.000
403.796	1.000
403.818	-2.000
403.841	-6.000
403.863	-1.000
403.885	3.000
403.908	19.000
403.930	111.000
403.953	277.000
403.975	262.000
403.997	80.000
404.020	4.000
404.042	-2.000
404.064	-8.000
404.087	3.000
404.109	-2.000
404.132	-5.000
404.154	0.000
404.176	40.000
404.199	117.000
404.221	125.000
404.243	41.000
404.266	-5.000
404.288	-4.000
404.311	-8.000
404.333	-9.000
404.355	-7.000
404.378	-5.000
404.400	-1.000
404.423	4.000
404.445	34.000
404.467	37.000
404.490	13.000
404.512	-3.000
404.534	-5.000
404.557	-1.000
404.579	-8.000
404.602	-5.000
404.624	-8.000
404.646	-3.000
404.669	0.000
404.691	4.000
404.713	7.000
404.736	3.000
404.758	0.000
404.781	-11.000
404.803	-7.000
404.825	-6.000
404.848	-6.000
404.870	-8.000
404.892	-5.000
404.915	-6.000
404.937	-12.000
404.960	-4.000
404.982	-6.000
405.004	-1.000
405.027	-2.000
405.049	-8.000
405.072	-8.000
405.094	-10.000
405.116	-8.000
405.139	-8.000
405.161	-2.000
405.183	-3.000
405.206	-6.000
405.228	-7.000
405.251	-6.000
405.273	-9.000
405.295	-5.000
405.318	-1.000
405.340	-3.000
405.362	-8.000
405.385	-10.000
405.407	-10.000
405.430	-10.000
405.452	-9.000
405.474	-3.000
405.497	-9.000
405.519	-8.000
405.541	-9.000
405.564	-12.000
405.586	-5.000
405.609	-4.000
405.631	-6.000
405.653	-5.000
405.676	-4.000
405.698	-8.000
405.720	-7.000
405.743	-6.000
405.765	-7.000
405.788	-4.000
405.810	-7.000
405.832	-2.000
405.855	-6.000
405.877	-6.000
405.899	-8.000
405.922	-9.000
405.944	-4.000
405.967	-9.000
405.989	-3.000
406.011	-6.000
406.034	-10.000
406.056	-4.000
406.078	-6.000
406.101	-3.000
406.123	-4.000
406.146	-5.000
406.168	-4.000
406.190	-1.000
406.213	-5.000
406.235	-6.000
406.258	-4.000
406.280	-6.000
406.302	-2.000
406.325	-6.000
406.347	-5.000
406.369	-7.000
406.392	-6.000
406.414	-3.000
406.437	-6.000
406.459	-7.000
406.481	-6.000
406.504	-5.000
406.526	-4.000
406.548	-7.000
406.571	-7.000
406.593	-4.000
406.616	-5.000
406.638	-3.000
406.660	-6.000
406.683	-7.000
406.705	-5.000
406.727	-4.000
406.750	-10.000
406.772	-5.000
406.795	-6.000
406.817	-4.000
406.839	-4.000
406.862	-9.000
406.884	-6.000
406.906	-5.000
406.929	-7.000
406.951	-5.000
406.974	-2.000
406.996	-6.000
407.018	-5.000
407.041	-3.000
407.063	-5.000
407.086	-8.000
407.108	-3.000
407.130	-7.000
407.153	-4.000
407.175	-7.000
407.197	-4.000
407.220	-6.000
407.242	-6.000
407.265	-6.000
407.287	-7.000
407.309	-3.000
407.332	-4.000
407.354	-6.000
407.376	-4.000
407.399	-6.000
407.421	-2.000
407.444	-4.000
407.466	-5.000
407.488	-4.000
407.511	-4.000
407.533	-3.000
407.555	-6.000
407.578	-2.000
407.600	-5.000
407.623	-3.000
407.645	-5.000
407.667	-10.000
407.690	-5.000
407.712	-5.000
407.734	-3.000
407.757	-5.000
407.779	-8.000
407.802	-3.000
407.824	-7.000
407.846	-8.000
407.869	-6.000
407.891	-4.000
407.914	-5.000
407.936	-2.000
407.958	-2.000
407.981	-9.000
408.003	-4.000
408.025	-10.000
408.048	-6.000
408.070	-5.000
408.093	-8.000
408.115	-4.000
408.137	-3.000
408.160	-4.000
408.182	-7.000
408.204	-5.000
408.227	-5.000
408.249	-6.000
408.272	-6.000
408.294	-6.000
408.316	-6.000
408.339	-3.000
408.361	-4.000
408.383	-5.000
408.406	-2.000
408.428	-6.000
408.451	-4.000
408.473	-8.000
408.495	-8.000
408.518	-4.000
408.540	-5.000
408.562	-7.000
408.585	-3.000
408.607	-6.000
408.630	-6.000
408.652	-4.000
408.674	-6.000
408.697	-4.000
408.719	-6.000
408.741	-7.000
408.764	-4.000
408.786	-6.000
408.809	-8.000
408.831	-3.000
408.853	-4.000
408.876	-5.000
408.898	-6.000
408.921	-3.000
408.943	-3.000
408.965	-8.000
408.988	-5.000
409.010	-4.000
409.032	-6.000
409.055	-4.000
409.077	-3.000
409.100	-7.000
409.122	-4.000
409.144	-3.000
409.167	-1.000
409.189	-8.000
409.211	-3.000
409.234	-7.000
409.256	-7.000
409.279	-6.000
409.301	-2.000
409.323	-4.000
409.346	-5.000
409.368	-4.000
409.390	-4.000
409.413	-4.000
409.435	-4.000
