386.542	0.100
386.565	-0.900
386.587	0.100
386.610	-0.900
386.632	0.000
386.654	-0.300
386.677	1.400
386.699	-0.400
386.721	1.400
386.744	0.100
386.766	0.200
386.789	-0.600
386.811	0.900
386.833	1.500
386.856	-0.600
386.878	0.700
386.900	1.200
386.923	1.400
386.945	-0.400
386.968	0.600
386.990	0.200
387.012	1.600
387.035	-2.200
387.057	-1.100
387.079	0.800
387.102	1.600
387.124	0.400
387.147	-1.600
387.169	2.100
387.191	0.700
387.214	1.500
387.236	2.100
387.259	0.600
387.281	2.000
387.303	1.000
387.326	-0.200
387.348	0.600
387.370	-0.800
387.393	2.000
387.415	-0.700
387.438	3.500
387.460	1.500
387.482	-0.500
387.505	1.000
387.527	1.900
387.549	-2.000
387.572	0.800
387.594	2.000
387.617	1.200
387.639	1.200
387.661	-0.100
387.684	-1.000
387.706	0.500
387.728	0.300
387.751	1.400
387.773	0.000
387.796	1.000
387.818	0.600
387.840	-0.200
387.863	-0.700
387.885	-1.000
387.907	1.700
387.930	1.600
387.952	-0.500
387.975	-0.900
387.997	1.000
388.019	1.300
388.042	2.300
388.064	0.500
388.086	-0.400
388.109	0.800
388.131	0.300
388.154	2.600
388.176	1.800
388.198	0.400
388.221	-0.400
388.243	0.000
388.266	-0.400
388.288	-0.200
388.310	-1.700
388.333	-0.400
388.355	1.200
388.377	1.700
388.400	0.500
388.422	1.900
388.445	3.700
388.467	0.900
388.489	2.200
388.512	0.400
388.534	0.300
388.556	0.300
388.579	0.600
388.601	1.000
388.624	1.400
388.646	1.400
388.668	0.200
388.691	0.900
388.713	0.700
388.735	0.700
388.758	1.400
388.780	0.200
388.803	2.000
388.825	1.400
388.847	0.600
388.870	1.000
388.892	1.500
388.914	2.400
388.937	1.600
388.959	1.800
388.982	3.300
389.004	0.900
389.026	2.400
389.049	1.700
389.071	1.500
389.094	1.700
389.116	0.900
389.138	-0.100
389.161	-0.100
389.183	1.200
389.205	3.100
389.228	-0.800
389.250	0.500
389.273	-0.900
389.295	0.100
389.317	0.700
389.340	0.500
389.362	1.000
389.384	1.400
389.407	1.900
389.429	-0.200
389.452	0.100
389.474	-0.400
389.496	1.800
389.519	3.700
389.541	4.300
389.563	2.000
389.586	1.300
389.608	0.000
389.631	2.200
389.653	2.400
389.675	2.000
389.698	2.000
389.720	1.500
389.742	2.300
389.765	1.800
389.787	1.800
389.810	3.400
389.832	2.400
389.854	4.300
389.877	3.500
389.899	1.400
389.922	2.900
389.944	2.600
389.966	3.800
389.989	3.900
390.011	5.200
390.033	1.200
390.056	3.700
390.078	6.300
390.101	6.800
390.123	6.100
390.145	2.500
390.168	2.000
390.190	2.900
390.212	6.300
390.235	8.400
390.257	7.600
390.280	5.000
390.302	4.200
390.324	6.300
390.347	10.300
390.369	11.500
390.391	9.900
390.414	5.400
390.436	2.500
390.459	4.800
390.481	7.600
390.503	10.200
390.526	11.400
390.548	7.600
390.570	4.700
390.593	4.900
390.615	9.000
390.638	9.600
390.660	15.000
390.682	10.000
390.705	2.100
390.727	4.300
390.749	5.300
390.772	10.400
390.794	13.100
390.817	10.900
390.839	4.100
390.861	4.500
390.884	6.400
390.906	8.200
390.928	10.800
390.951	9.000
390.973	6.200
390.996	3.800
391.018	5.000
391.040	6.200
391.063	11.000
391.085	10.000
391.108	3.400
391.130	6.300
391.152	5.700
391.175	4.500
391.197	5.900
391.219	10.400
391.242	10.700
391.264	4.600
391.287	3.200
391.309	3.500
391.331	7.400
391.354	7.900
391.376	9.400
391.398	2.900
391.421	3.100
391.443	4.000
391.466	3.100
391.488	7.700
391.510	9.500
391.533	5.200
391.555	5.400
391.577	2.900
391.600	4.000
391.622	7.900
391.645	6.000
391.667	6.600
391.689	5.900
391.712	1.900
391.734	1.900
391.757	5.200
391.779	6.400
391.801	4.700
391.824	5.700
391.846	4.200
391.868	2.600
391.891	4.000
391.913	6.000
391.936	4.000
391.958	8.800
391.980	5.200
392.003	3.300
392.025	2.800
392.047	2.600
392.070	2.000
392.092	5.000
392.115	3.200
392.137	5.100
392.159	2.900
392.182	2.400
392.204	1.800
392.226	2.400
392.249	6.200
392.271	5.500
392.294	4.300
392.316	4.400
392.338	3.800
392.361	0.500
392.383	1.200
392.405	4.800
392.428	5.800
392.450	6.500
392.473	1.800
392.495	0.200
392.517	5.700
392.540	3.200
392.562	2.200
392.585	3.200
392.607	4.900
392.629	6.100
392.652	0.900
392.674	3.600
392.696	3.700
392.719	4.300
392.741	3.000
392.764	4.000
392.786	3.600
392.808	6.100
392.831	1.300
392.853	2.900
392.875	3.900
392.898	6.600
392.920	1.900
392.943	2.500
392.965	4.600
392.987	4.200
393.010	5.600
393.032	4.100
393.054	5.600
393.077	2.800
393.099	5.400
393.122	5.100
393.144	3.300
393.166	4.300
393.189	4.600
393.211	5.500
393.233	5.900
393.256	4.500
393.278	6.000
393.301	4.400
393.323	2.400
393.345	3.300
393.368	4.700
393.390	3.700
393.412	5.200
393.435	4.500
393.457	3.600
393.480	4.600
393.502	4.100
393.524	2.800
393.547	5.500
393.569	6.800
393.592	6.100
393.614	5.000
393.636	5.100
393.659	5.900
393.681	6.800
393.703	6.700
393.726	5.500
393.748	6.900
393.771	7.900
393.793	5.400
393.815	5.200
393.838	6.400
393.860	7.100
393.882	2.700
393.905	5.100
393.927	4.300
393.950	10.100
393.972	7.700
393.994	10.000
394.017	10.600
394.039	13.100
394.061	13.900
394.084	13.800
394.106	14.000
394.129	15.500
394.151	20.100
394.173	15.600
394.196	17.900
394.218	17.600
394.240	18.300
394.263	15.800
394.285	21.400
394.308	19.700
394.330	30.200
394.352	26.100
394.375	29.800
394.397	28.300
394.419	28.800
394.442	36.000
394.464	44.300
394.487	38.000
394.509	38.800
394.531	40.300
394.554	43.000
394.576	48.100
394.599	49.700
394.621	41.500
394.643	41.200
394.666	44.900
394.688	41.400
394.710	39.400
394.733	48.600
394.755	40.300
394.778	47.100
394.800	44.000
394.822	57.100
394.845	54.900
394.867	48.400
394.889	50.100
394.912	43.600
394.934	53.400
394.957	59.800
394.979	59.600
395.001	71.100
395.024	83.200
395.046	76.100
395.068	81.700
395.091	78.900
395.113	83.100
395.136	71.000
395.158	71.900
395.180	72.300
395.203	61.800
395.225	66.200
395.247	66.600
395.270	72.400
395.292	57.900
395.315	63.100
395.337	52.300
395.359	48.900
395.382	44.200
395.404	39.700
395.427	39.200
395.449	38.400
395.471	39.200
395.494	38.400
395.516	38.800
395.538	31.800
395.561	28.600
395.583	26.800
395.606	25.200
395.628	31.400
395.650	25.400
395.673	32.100
395.695	30.400
395.717	27.800
395.740	24.300
395.762	23.500
395.785	32.400
395.807	29.200
395.829	26.100
395.852	35.900
395.874	29.300
395.896	24.100
395.919	20.800
395.941	20.800
395.964	22.800
395.986	27.800
396.008	37.200
396.031	36.500
396.053	26.400
396.075	25.200
396.098	23.100
396.120	20.800
396.143	20.700
396.165	23.700
396.187	34.400
396.210	34.300
396.232	32.200
396.255	30.200
396.277	31.500
396.299	25.100
396.322	36.000
396.344	53.700
396.366	73.400
396.389	74.000
396.411	45.700
396.434	29.300
396.456	32.000
396.478	43.400
396.501	67.300
396.523	104.600
396.545	116.200
396.568	90.000
396.590	55.900
396.613	38.300
396.635	41.100
396.657	55.200
396.680	95.400
396.702	152.900
396.724	168.200
396.747	118.100
396.769	64.600
396.792	45.400
396.814	42.900
396.836	52.200
396.859	95.900
396.881	139.700
396.903	144.800
396.926	107.600
396.948	73.000
396.971	51.000
396.993	56.600
397.015	76.900
397.038	101.000
397.060	146.300
397.082	150.900
397.105	110.000
397.127	68.300
397.150	53.400
397.172	66.400
397.194	69.700
397.217	82.000
397.239	96.000
397.262	98.700
397.284	92.100
397.306	133.000
397.329	188.800
397.351	262.700
397.373	325.800
397.396	335.900
397.418	415.900
397.441	506.200
397.463	544.600
397.485	587.400
397.508	637.300
397.530	709.300
397.552	855.000
397.575	1170.700
397.597	1517.300
397.620	1827.900
397.642	2159.700
397.664	2765.400
397.687	3384.100
397.709	3711.100
397.731	3779.500
397.754	3354.000
397.776	400.700
397.799	0.000
397.821	0.000
397.843	0.000
397.866	0.000
397.888	0.000
397.910	0.000
397.933	0.000
397.955	0.000
397.978	0.000
398.000	0.000
398.022	0.000
398.045	0.000
398.067	0.000
398.090	4047.000
398.112	4538.600
398.134	2197.200
398.157	1801.200
398.179	1699.000
398.201	1304.300
398.224	1083.500
398.246	902.200
398.269	781.700
398.291	656.100
398.313	618.700
398.336	617.600
398.358	590.300
398.380	532.600
398.403	481.700
398.425	451.200
398.448	420.800
398.470	397.800
398.492	368.300
398.515	407.600
398.537	483.000
398.559	560.700
398.582	611.900
398.604	486.600
398.627	370.900
398.649	283.200
398.671	270.400
398.694	334.300
398.716	578.500
398.738	906.100
398.761	1015.100
398.783	672.000
398.806	299.100
398.828	173.200
398.850	217.100
398.873	506.600
398.895	1257.000
398.918	2228.900
398.940	2428.700
398.962	1483.000
398.985	555.500
399.007	221.100
399.029	261.000
399.052	636.700
399.074	1626.200
399.097	2898.600
399.119	3212.000
399.141	1893.500
399.164	661.600
399.186	245.000
399.208	273.900
399.231	740.300
399.253	1941.900
399.276	3484.200
399.298	3736.200
399.320	2140.800
399.343	728.100
399.365	246.500
399.387	284.400
399.410	734.500
399.432	1780.300
399.455	2923.200
399.477	2851.100
399.499	1561.300
399.522	514.900
399.544	153.400
399.566	132.100
399.589	284.300
399.611	778.100
399.634	1630.400
399.656	2093.900
399.678	1327.600
399.701	463.800
399.723	120.100
399.745	65.300
399.768	64.800
399.790	85.600
399.813	150.200
399.835	193.300
399.857	145.600
399.880	72.700
399.902	46.800
399.925	42.800
399.947	68.300
399.969	154.200
399.992	318.300
400.014	433.500
400.036	288.400
400.059	113.400
400.081	48.600
400.104	40.300
400.126	66.700
400.148	168.800
400.171	335.500
400.193	405.800
400.215	250.700
400.238	101.800
400.260	36.900
400.283	33.900
400.305	48.600
400.327	80.900
400.350	152.200
400.372	186.200
400.394	128.800
400.417	68.100
400.439	35.600
400.462	37.200
400.484	42.500
400.506	56.600
400.529	73.100
400.551	78.900
400.573	64.000
400.596	43.300
400.618	39.300
400.641	46.100
400.663	61.100
400.685	76.200
400.708	88.300
400.730	93.600
400.753	71.500
400.775	59.200
400.797	66.700
400.820	62.600
400.842	68.600
400.864	67.500
400.887	61.200
400.909	76.300
400.932	72.800
400.954	74.200
400.976	76.100
400.999	71.800
401.021	75.100
401.043	73.300
401.066	66.100
401.088	64.400
401.111	60.800
401.133	53.600
401.155	58.400
401.178	58.500
401.200	51.100
401.222	54.600
401.245	53.300
401.267	46.200
401.290	52.000
401.312	54.200
401.334	46.000
401.357	50.500
401.379	45.400
401.401	39.900
401.424	49.400
401.446	48.700
401.469	44.700
401.491	44.900
401.513	39.800
401.536	38.600
401.558	36.600
401.581	37.600
401.603	43.700
401.625	42.000
401.648	30.000
401.670	30.400
401.692	22.700
401.715	29.700
401.737	25.400
401.760	24.100
401.782	18.400
401.804	18.600
401.827	16.600
401.849	17.300
401.871	8.800
401.894	15.300
401.916	12.600
401.939	11.400
401.961	13.900
401.983	11.400
402.006	11.100
402.028	12.100
402.050	6.800
402.073	9.900
402.095	8.300
402.118	12.700
402.140	10.800
402.162	10.200
402.185	8.000
402.207	8.800
402.229	8.200
402.252	8.300
402.274	6.400
402.297	5.200
402.319	8.600
402.341	10.200
402.364	7.100
402.386	6.600
402.408	5.600
402.431	7.900
402.453	5.800
402.476	8.400
402.498	9.700
402.520	6.700
402.543	7.100
402.565	7.500
402.588	5.200
402.610	8.400
402.632	6.000
402.655	6.500
402.677	7.900
402.699	7.400
402.722	7.000
402.744	5.800
402.767	8.100
402.789	8.800
402.811	7.000
402.834	9.600
402.856	10.100
402.878	5.500
402.901	6.300
402.923	2.900
402.946	4.300
402.968	7.000
402.990	9.000
403.013	10.900
403.035	10.400
403.057	5.100
403.080	3.600
403.102	5.500
403.125	6.600
403.147	7.400
403.169	13.500
403.192	12.800
403.214	10.200
403.236	4.200
403.259	4.600
403.281	5.300
403.304	6.500
403.326	11.200
403.348	16.600
403.371	14.400
403.393	9.500
403.415	4.200
403.438	3.600
403.460	3.200
403.483	7.000
403.505	10.500
403.527	17.900
403.550	14.200
403.572	5.800
403.595	5.500
403.617	5.300
403.639	9.200
403.662	16.000
403.684	26.400
403.706	26.300
403.729	13.500
403.751	8.000
403.774	3.200
403.796	1.100
403.818	8.400
403.841	26.000
403.863	44.800
403.885	33.800
403.908	16.300
403.930	6.000
403.953	2.900
403.975	8.600
403.997	20.300
404.020	44.000
404.042	51.100
404.064	26.500
404.087	10.700
404.109	5.300
404.132	4.400
404.154	14.100
404.176	42.500
404.199	67.200
404.221	50.800
404.243	22.300
404.266	9.100
404.288	3.800
404.311	13.700
404.333	53.900
404.355	125.800
404.378	141.100
404.400	75.600
404.423	26.800
404.445	11.500
404.467	10.900
404.490	37.300
404.512	105.300
404.534	161.100
404.557	110.400
404.579	42.800
404.602	11.300
404.624	11.500
404.646	28.300
404.669	86.900
404.691	168.000
404.713	154.800
404.736	71.100
404.758	22.500
404.781	10.200
404.803	19.400
404.825	67.600
404.848	168.800
404.870	215.800
404.892	124.300
404.915	46.500
404.937	14.000
404.960	16.100
404.982	47.500
405.004	130.700
405.027	207.600
405.049	151.600
405.072	60.800
405.094	20.200
405.116	17.600
405.139	60.600
405.161	172.300
405.183	312.300
405.206	266.600
405.228	118.600
405.251	33.300
405.273	16.900
405.295	43.400
405.318	159.700
405.340	332.900
405.362	342.100
405.385	166.300
405.407	53.300
405.430	20.700
405.452	43.200
405.474	154.800
405.497	345.200
405.519	395.100
405.541	212.000
405.564	68.100
405.586	20.800
405.609	40.200
405.631	157.300
405.653	380.400
405.676	482.000
405.698	281.600
405.720	94.500
405.743	30.500
405.765	51.300
405.788	189.900
405.810	444.300
405.832	556.500
405.855	316.100
405.877	103.300
405.899	30.800
405.922	48.300
405.944	171.100
405.967	409.100
405.989	528.600
406.011	311.600
406.034	108.800
406.056	31.900
406.078	45.900
406.101	172.300
406.123	409.500
406.146	513.500
406.168	301.200
406.190	102.300
406.213	32.400
406.235	57.500
406.258	194.900
406.280	417.700
406.302	472.400
406.325	253.500
406.347	83.100
406.369	29.600
406.392	55.200
406.414	164.600
406.437	317.500
406.459	319.000
406.481	159.400
406.504	50.000
406.526	20.000
406.548	59.400
406.571	163.400
406.593	277.600
406.616	228.700
406.638	101.500
406.660	30.300
406.683	17.200
406.705	51.100
406.727	123.200
406.750	177.700
406.772	119.000
406.795	48.500
406.817	13.000
406.839	13.800
406.862	41.400
406.884	90.600
406.906	103.300
406.929	58.400
406.951	21.600
406.974	8.700
406.996	17.500
407.018	44.200
407.041	73.300
407.063	65.500
407.086	29.700
407.108	11.400
407.130	8.300
407.153	22.400
407.175	45.300
407.197	53.200
407.220	33.300
407.242	14.800
407.265	6.100
407.287	9.400
407.309	21.400
407.332	34.900
407.354	29.700
407.376	13.200
407.399	5.200
407.421	5.500
407.444	8.700
407.466	15.700
407.488	18.800
407.511	11.500
407.533	4.800
407.555	2.500
407.578	3.200
407.600	7.600
407.623	12.000
407.645	8.500
407.667	4.700
407.690	1.800
407.712	2.100
407.734	3.800
407.757	5.300
407.779	4.800
407.802	-0.100
407.824	1.800
407.846	0.700
407.869	1.800
407.891	1.900
407.914	3.900
407.936	1.200
407.958	2.000
407.981	0.500
408.003	0.700
408.025	-0.300
408.048	-0.100
408.070	1.500
408.093	1.600
408.115	0.600
408.137	1.600
408.160	-0.600
408.182	2.300
408.204	0.500
408.227	3.200
408.249	1.300
408.272	0.600
408.294	0.000
408.316	2.500
408.339	-0.400
408.361	0.900
408.383	2.100
408.406	3.400
408.428	1.800
408.451	0.900
408.473	1.100
408.495	2.000
408.518	0.600
408.540	0.900
408.562	-1.200
408.585	0.900
408.607	-0.400
408.630	0.500
408.652	1.400
408.674	-1.500
408.697	0.900
408.719	1.000
408.741	1.600
408.764	2.500
408.786	1.700
408.809	1.400
408.831	3.200
408.853	0.600
408.876	0.500
408.898	0.300
408.921	-1.000
408.943	-1.000
408.965	-1.500
408.988	0.600
409.010	2.500
409.032	0.500
409.055	0.400
409.077	1.000
409.100	1.100
409.122	0.200
409.144	0.600
409.167	0.500
409.189	-0.500
409.211	0.200
409.234	-0.800
409.256	0.000
409.279	0.900
409.301	0.000
409.323	1.500
409.346	1.400
409.368	0.400
409.390	2.200
409.413	1.100
409.435	1.800
