386.542	-2.700
386.565	-2.200
386.587	-2.000
386.610	-1.100
386.632	-0.100
386.654	-1.300
386.677	-1.100
386.699	-1.700
386.721	-2.300
386.744	-0.200
386.766	-1.500
386.789	0.000
386.811	-1.500
386.833	0.400
386.856	-0.200
386.878	2.300
386.900	1.400
386.923	2.700
386.945	0.600
386.968	0.900
386.990	0.900
387.012	0.100
387.035	0.800
387.057	1.200
387.079	0.700
387.102	1.200
387.124	1.000
387.147	2.300
387.169	0.600
387.191	3.100
387.214	2.200
387.236	2.600
387.259	2.600
387.281	2.100
387.303	1.300
387.326	4.700
387.348	4.400
387.370	4.100
387.393	3.400
387.415	4.800
387.438	5.200
387.460	3.200
387.482	5.100
387.505	5.000
387.527	6.100
387.549	6.900
387.572	7.300
387.594	7.300
387.617	7.100
387.639	7.600
387.661	7.400
387.684	9.400
387.706	8.300
387.728	10.500
387.751	10.200
387.773	12.100
387.796	11.800
387.818	12.200
387.840	13.900
387.863	13.200
387.885	9.300
387.907	10.600
387.930	9.000
387.952	10.400
387.975	10.500
387.997	9.800
388.019	10.000
388.042	11.700
388.064	11.300
388.086	12.200
388.109	10.600
388.131	13.600
388.154	12.000
388.176	11.600
388.198	11.100
388.221	11.300
388.243	14.100
388.266	13.800
388.288	14.400
388.310	13.900
388.333	14.200
388.355	13.500
388.377	15.400
388.400	15.100
388.422	14.200
388.445	15.600
388.467	16.100
388.489	17.100
388.512	17.100
388.534	16.500
388.556	14.900
388.579	17.200
388.601	16.200
388.624	16.100
388.646	15.600
388.668	16.900
388.691	16.800
388.713	17.700
388.735	18.600
388.758	18.600
388.780	19.300
388.803	19.100
388.825	19.500
388.847	18.400
388.870	20.300
388.892	19.500
388.914	21.800
388.937	24.700
388.959	24.100
388.982	25.900
389.004	22.100
389.026	17.600
389.049	17.100
389.071	16.100
389.094	15.200
389.116	16.700
389.138	15.600
389.161	16.300
389.183	17.900
389.205	14.900
389.228	15.600
389.250	15.800
389.273	16.000
389.295	14.900
389.317	15.900
389.340	15.400
389.362	14.700
389.384	14.800
389.407	15.100
389.429	14.800
389.452	15.300
389.474	16.300
389.496	14.700
389.519	14.300
389.541	14.400
389.563	12.700
389.586	13.400
389.608	16.500
389.631	12.100
389.653	13.100
389.675	14.200
389.698	15.000
389.720	12.800
389.742	12.800
389.765	12.600
389.787	13.900
389.810	11.800
389.832	12.300
389.854	10.800
389.877	9.500
389.899	11.000
389.922	11.900
389.944	11.900
389.966	11.000
389.989	13.700
390.011	14.300
390.033	12.300
390.056	10.100
390.078	13.000
390.101	9.100
390.123	9.800
390.145	10.400
390.168	10.100
390.190	11.000
390.212	8.800
390.235	9.900
390.257	8.400
390.280	8.700
390.302	10.800
390.324	6.100
390.347	8.200
390.369	10.600
390.391	8.700
390.414	6.500
390.436	8.200
390.459	8.400
390.481	7.500
390.503	5.800
390.526	7.000
390.548	7.800
390.570	4.600
390.593	4.100
390.615	5.700
390.638	4.900
390.660	3.200
390.682	4.400
390.705	3.200
390.727	5.300
390.749	4.100
390.772	3.300
390.794	3.200
390.817	3.700
390.839	0.600
390.861	1.600
390.884	0.900
390.906	2.000
390.928	-0.100
390.951	0.900
390.973	0.400
390.996	-2.000
391.018	-0.300
391.040	0.200
391.063	-0.900
391.085	-1.800
391.108	-1.400
391.130	-1.000
391.152	-4.200
391.175	-2.000
391.197	-3.900
391.219	-2.900
391.242	-3.900
391.264	-2.200
391.287	-6.800
391.309	-3.500
391.331	-4.000
391.354	-3.700
391.376	-3.900
391.398	-3.400
391.421	-4.300
391.443	-4.100
391.466	-5.200
391.488	-6.800
391.510	-3.600
391.533	-6.200
391.555	-7.700
391.577	-7.300
391.600	-4.900
391.622	-6.700
391.645	-4.500
391.667	-6.800
391.689	-7.500
391.712	-7.400
391.734	-5.700
391.757	-7.200
391.779	-5.900
391.801	-7.000
391.824	-6.600
391.846	-9.300
391.868	-8.100
391.891	-7.100
391.913	-9.700
391.936	-8.400
391.958	-9.300
391.980	-7.600
392.003	-8.100
392.025	-8.100
392.047	-8.700
392.070	-7.600
392.092	-10.400
392.115	-9.600
392.137	-7.800
392.159	-7.400
392.182	-9.300
392.204	-10.900
392.226	-12.700
392.249	-9.200
392.271	-7.800
392.294	-11.900
392.316	-8.400
392.338	-10.900
392.361	-8.200
392.383	-10.200
392.405	-8.500
392.428	-7.900
392.450	-9.000
392.473	-7.300
392.495	-8.400
392.517	-9.600
392.540	-8.700
392.562	-10.500
392.585	-8.100
392.607	-9.100
392.629	-8.500
392.652	-7.700
392.674	-10.600
392.696	-11.600
392.719	-10.000
392.741	-9.800
392.764	-7.700
392.786	-6.500
392.808	-10.500
392.831	-9.900
392.853	-8.900
392.875	-8.500
392.898	-8.100
392.920	-8.000
392.943	-10.300
392.965	-10.500
392.987	-7.000
393.010	-4.000
393.032	-7.200
393.054	-9.700
393.077	-5.400
393.099	-8.400
393.122	-9.100
393.144	-9.800
393.166	-8.500
393.189	-9.800
393.211	-8.200
393.233	-3.800
393.256	-7.200
393.278	-11.600
393.301	-8.500
393.323	-9.700
393.345	-9.800
393.368	-8.400
393.390	-9.700
393.412	-8.700
393.435	-8.500
393.457	-5.300
393.480	-2.600
393.502	-6.000
393.524	-6.200
393.547	-8.800
393.569	-10.600
393.592	-4.600
393.614	-9.600
393.636	-8.400
393.659	-9.400
393.681	-6.600
393.703	-3.500
393.726	-4.000
393.748	-5.300
393.771	-8.600
393.793	-6.900
393.815	-5.600
393.838	-6.500
393.860	-10.700
393.882	-8.200
393.905	-3.900
393.927	3.000
393.950	-1.900
393.972	-13.600
393.994	-4.600
394.017	-14.300
394.039	-9.300
394.061	-1.000
394.084	-8.800
394.106	-11.400
394.129	2.600
394.151	61.400
394.173	92.000
394.196	35.300
394.218	-8.800
394.240	-4.500
394.263	35.500
394.285	100.700
394.308	45.800
394.330	-9.900
394.352	-16.700
394.375	29.500
394.397	225.400
394.419	215.000
394.442	29.100
394.464	-15.100
394.487	-16.000
394.509	-0.600
394.531	14.500
394.554	-12.800
394.576	-25.700
394.599	-21.300
394.621	7.900
394.643	73.200
394.666	31.100
394.688	-23.600
394.710	-35.400
394.733	-32.000
394.755	-12.300
394.778	-13.100
394.800	-29.700
394.822	-34.000
394.845	-22.100
394.867	41.500
394.889	86.200
394.912	0.100
394.934	-37.300
394.957	-36.800
394.979	-19.600
395.001	-2.900
395.024	-11.200
395.046	-26.300
395.068	-22.000
395.091	12.400
395.113	109.900
395.136	98.100
395.158	11.700
395.180	-12.600
395.203	-5.500
395.225	19.300
395.247	38.800
395.270	9.900
395.292	-3.300
395.315	3.400
395.337	98.100
395.359	274.600
395.382	147.300
395.404	12.500
395.427	-4.300
395.449	9.500
395.471	65.900
395.494	66.500
395.516	10.000
395.538	0.300
395.561	20.500
395.583	182.200
395.606	354.100
395.628	130.900
395.650	3.700
395.673	-5.900
395.695	24.400
395.717	99.700
395.740	63.700
395.762	2.500
395.785	-6.300
395.807	61.100
395.829	494.500
395.852	685.500
395.874	205.700
395.896	8.700
395.919	-3.900
395.941	60.700
395.964	177.400
395.986	88.600
396.008	6.700
396.031	-0.700
396.053	119.300
396.075	613.900
396.098	605.000
396.120	105.800
396.143	-0.600
396.165	4.200
396.187	110.000
396.210	262.600
396.232	111.800
396.255	4.000
396.277	10.100
396.299	241.100
396.322	1020.200
396.344	776.300
396.366	114.800
396.389	1.800
396.411	13.000
396.434	122.000
396.456	198.600
396.478	55.600
396.501	0.400
396.523	18.600
396.545	311.100
396.568	1032.500
396.590	699.600
396.613	89.600
396.635	-5.700
396.657	22.200
396.680	247.800
396.702	419.000
396.724	141.000
396.747	4.300
396.769	7.000
396.792	210.700
396.814	676.200
396.836	399.300
396.859	35.200
396.881	-7.600
396.903	2.000
396.926	66.400
396.948	76.300
396.971	4.000
396.993	-19.000
397.015	-7.500
397.038	122.200
397.060	413.600
397.082	258.900
397.105	10.300
397.127	-23.800
397.150	-22.500
397.172	12.300
397.194	14.900
397.217	-15.400
397.239	-28.700
397.262	-37.700
397.284	-11.700
397.306	40.700
397.329	8.300
397.351	-63.300
397.373	-156.400
397.396	-270.100
397.418	-307.300
397.441	-386.400
397.463	-581.300
397.485	-654.700
397.508	-661.300
397.530	-687.000
397.552	-654.200
397.575	-651.200
397.597	-653.900
397.620	-589.900
397.642	-464.800
397.664	-276.400
397.687	-137.900
397.709	-125.200
397.731	-66.500
397.754	70.100
397.776	340.500
397.799	582.000
397.821	633.900
397.843	147.000
397.866	-514.500
397.888	-767.500
397.910	1979.000
397.933	0.000
397.955	0.000
397.978	0.000
398.000	0.000
398.022	0.000
398.045	0.000
398.067	-2774.900
398.090	-1553.100
398.112	-1050.900
398.134	-1037.200
398.157	-1082.900
398.179	-778.100
398.201	-474.600
398.224	-371.100
398.246	-221.800
398.269	-160.500
398.291	-115.100
398.313	-101.800
398.336	-117.000
398.358	-98.100
398.380	-66.800
398.403	-57.400
398.425	-35.200
398.448	-41.600
398.470	-28.400
398.492	-39.400
398.515	-34.600
398.537	-32.100
398.559	-29.100
398.582	-42.400
398.604	-42.100
398.627	-17.300
398.649	27.700
398.671	37.300
398.694	-4.200
398.716	-17.600
398.738	-15.100
398.761	-16.900
398.783	15.600
398.806	15.500
398.828	-9.700
398.850	-15.100
398.873	12.600
398.895	229.100
398.918	411.200
398.940	138.000
398.962	8.200
398.985	-10.300
399.007	10.500
399.029	79.400
399.052	85.300
399.074	14.300
399.097	1.700
399.119	22.400
399.141	282.300
399.164	636.800
399.186	283.800
399.208	26.300
399.231	2.800
399.253	67.500
399.276	317.500
399.298	325.300
399.320	71.400
399.343	6.000
399.365	44.700
399.387	498.200
399.410	1353.700
399.432	706.900
399.455	88.500
399.477	10.100
399.499	29.900
399.522	164.900
399.544	231.300
399.566	66.000
399.589	8.200
399.611	29.000
399.634	320.600
399.656	1100.500
399.678	756.400
399.701	121.200
399.723	8.100
399.745	28.700
399.768	197.900
399.790	312.800
399.813	89.200
399.835	12.700
399.857	22.100
399.880	248.100
399.902	938.600
399.925	789.300
399.947	146.600
399.969	13.300
399.992	20.800
400.014	111.600
400.036	206.700
400.059	97.600
400.081	15.600
400.104	18.500
400.126	159.700
400.148	694.800
400.171	737.000
400.193	182.100
400.215	25.000
400.238	17.300
400.260	73.500
400.283	166.500
400.305	99.300
400.327	26.900
400.350	13.300
400.372	77.500
400.394	348.300
400.417	442.500
400.439	142.900
400.462	20.000
400.484	14.200
400.506	44.700
400.529	115.500
400.551	87.400
400.573	16.700
400.596	4.900
400.618	40.200
400.641	232.700
400.663	390.800
400.685	159.000
400.708	23.500
400.730	9.900
400.753	20.400
400.775	59.900
400.797	49.900
400.820	6.800
400.842	3.000
400.864	12.800
400.887	99.200
400.909	182.000
400.932	82.800
400.954	1.400
400.976	-16.000
400.999	-7.500
401.021	13.500
401.043	15.700
401.066	-12.100
401.088	-22.300
401.111	-12.100
401.133	54.600
401.155	146.600
401.178	82.100
401.200	-2.500
401.222	-20.000
401.245	-16.100
401.267	0.100
401.290	11.000
401.312	-6.000
401.334	-14.700
401.357	-7.700
401.379	38.600
401.401	117.800
401.424	91.600
401.446	11.200
401.469	-9.200
401.491	-3.400
401.513	25.200
401.536	39.300
401.558	14.100
401.581	-4.700
401.603	8.400
401.625	109.300
401.648	333.900
401.670	337.600
401.692	98.200
401.715	8.600
401.737	13.000
401.760	76.300
401.782	167.300
401.804	115.500
401.827	23.900
401.849	3.400
401.871	38.200
401.894	133.500
401.916	182.100
401.939	79.600
401.961	6.000
401.983	-2.700
402.006	0.400
402.028	6.300
402.050	1.300
402.073	2.700
402.095	0.700
402.118	-0.300
402.140	2.100
402.162	13.000
402.185	12.900
402.207	2.900
402.229	0.100
402.252	-1.100
402.274	-0.100
402.297	-2.300
402.319	-1.100
402.341	-0.800
402.364	-0.800
402.386	2.400
402.408	6.900
402.431	3.800
402.453	-0.900
402.476	-1.700
402.498	0.400
402.520	1.500
402.543	0.400
402.565	-0.500
402.588	-0.500
402.610	0.600
402.632	2.900
402.655	7.100
402.677	5.100
402.699	1.100
402.722	-1.400
402.744	0.700
402.767	1.100
402.789	2.400
402.811	0.500
402.834	0.100
402.856	-1.600
402.878	1.300
402.901	5.400
402.923	6.500
402.946	1.100
402.968	0.200
402.990	-1.500
403.013	0.900
403.035	1.200
403.057	0.300
403.080	-1.500
403.102	-0.700
403.125	0.300
403.147	5.200
403.169	4.800
403.192	1.200
403.214	-1.000
403.236	0.100
403.259	0.100
403.281	0.800
403.304	0.700
403.326	0.400
403.348	1.500
403.371	-0.900
403.393	1.900
403.415	4.100
403.438	1.200
403.460	0.600
403.483	-1.000
403.505	-0.600
403.527	-1.000
403.550	0.400
403.572	-0.200
403.595	-0.600
403.617	-1.400
403.639	0.400
403.662	1.100
403.684	0.100
403.706	-0.100
403.729	-0.900
403.751	0.900
403.774	0.800
403.796	-0.100
403.818	0.300
403.841	1.000
403.863	-0.600
403.885	0.500
403.908	-1.100
403.930	0.500
403.953	0.000
403.975	-0.600
403.997	0.000
404.020	-0.500
404.042	-0.400
404.064	-0.900
404.087	0.100
404.109	0.300
404.132	0.500
404.154	1.000
404.176	0.100
404.199	-0.700
404.221	-0.400
404.243	-1.100
404.266	-0.900
404.288	-1.900
404.311	0.400
404.333	-0.800
404.355	1.300
404.378	0.300
404.400	1.000
404.423	0.800
404.445	0.100
404.467	0.000
404.490	-1.400
404.512	-0.300
404.534	0.000
404.557	0.000
404.579	-0.200
404.602	-0.500
404.624	0.700
404.646	0.300
404.669	-0.100
404.691	0.600
404.713	-0.100
404.736	-0.100
404.758	0.700
404.781	-0.200
404.803	0.100
404.825	-0.300
404.848	-0.100
404.870	1.500
404.892	-0.100
404.915	0.100
404.937	0.700
404.960	2.200
404.982	0.000
405.004	1.100
405.027	-0.800
405.049	0.100
405.072	0.100
405.094	0.000
405.116	-0.100
405.139	-0.200
405.161	0.200
405.183	0.700
405.206	2.000
405.228	-0.200
405.251	0.000
405.273	0.000
405.295	-0.200
405.318	0.400
405.340	0.700
405.362	0.000
405.385	1.200
405.407	1.100
405.430	-0.300
405.452	-0.100
405.474	0.600
405.497	1.200
405.519	-0.300
405.541	1.800
405.564	-0.200
405.586	1.100
405.609	0.200
405.631	1.200
405.653	0.900
405.676	0.000
405.698	0.400
405.720	0.100
405.743	-0.300
405.765	-0.200
405.788	0.300
405.810	-0.900
405.832	0.800
405.855	0.300
405.877	-0.900
405.899	-0.100
405.922	0.200
405.944	1.100
405.967	0.400
405.989	0.000
406.011	1.300
406.034	1.000
406.056	0.600
406.078	0.900
406.101	0.000
406.123	0.400
406.146	0.700
406.168	0.300
406.190	0.400
406.213	0.600
406.235	0.800
406.258	1.400
406.280	-0.500
406.302	0.600
406.325	0.000
406.347	0.500
406.369	0.100
406.392	0.200
406.414	0.900
406.437	0.500
406.459	1.000
406.481	0.700
406.504	0.200
406.526	0.800
406.548	0.600
406.571	-0.300
406.593	0.300
406.616	0.400
406.638	0.600
406.660	1.700
406.683	-0.100
406.705	0.800
406.727	0.700
406.750	-0.500
406.772	0.300
406.795	-0.200
406.817	0.900
406.839	-0.100
406.862	0.400
406.884	-0.100
406.906	0.800
406.929	0.800
406.951	-0.500
406.974	0.300
406.996	0.800
407.018	0.100
407.041	0.400
407.063	0.300
407.086	1.000
407.108	1.100
407.130	1.300
407.153	0.300
407.175	-0.200
407.197	0.100
407.220	-0.400
407.242	0.000
407.265	0.100
407.287	1.400
407.309	1.100
407.332	0.800
407.354	1.700
407.376	1.300
407.399	1.400
407.421	1.300
407.444	-0.100
407.466	2.200
407.488	2.700
407.511	1.100
407.533	0.800
407.555	0.100
407.578	1.100
407.600	2.300
407.623	0.000
407.645	1.000
407.667	1.600
407.690	1.700
407.712	1.300
407.734	0.800
407.757	1.700
407.779	0.800
407.802	1.200
407.824	1.900
407.846	0.500
407.869	0.600
407.891	1.900
407.914	1.300
407.936	2.100
407.958	1.100
407.981	0.500
408.003	1.200
408.025	1.000
408.048	1.800
408.070	1.400
408.093	1.800
408.115	1.800
408.137	0.800
408.160	1.500
408.182	1.100
408.204	1.600
408.227	0.600
408.249	0.400
408.272	1.100
408.294	1.200
408.316	1.400
408.339	2.100
408.361	1.400
408.383	0.800
408.406	0.500
408.428	0.100
408.451	0.700
408.473	0.500
408.495	0.300
408.518	0.800
408.540	1.100
408.562	0.800
408.585	0.700
408.607	1.200
408.630	0.900
408.652	1.000
408.674	0.800
408.697	-0.200
408.719	0.600
408.741	1.200
408.764	1.600
408.786	0.000
408.809	1.000
408.831	1.100
408.853	0.600
408.876	1.300
408.898	2.100
408.921	0.800
408.943	1.000
408.965	0.200
408.988	1.000
409.010	1.000
409.032	1.000
409.055	1.800
409.077	1.900
409.100	1.200
409.122	1.500
409.144	1.100
409.167	1.500
409.189	0.800
409.211	1.500
409.234	2.100
409.256	0.700
409.279	0.900
409.301	1.100
409.323	1.700
409.346	1.500
409.368	1.700
409.390	1.100
409.413	0.900
409.435	1.100
