386.542	-1.600
386.565	-0.600
386.587	-2.000
386.610	-0.800
386.632	-1.800
386.654	-3.800
386.677	-1.500
386.699	-1.100
386.721	1.300
386.744	0.800
386.766	0.200
386.789	-1.900
386.811	0.700
386.833	-1.000
386.856	1.500
386.878	2.600
386.900	2.100
386.923	3.100
386.945	-2.500
386.968	-2.000
386.990	-2.900
387.012	-3.200
387.035	-0.300
387.057	2.500
387.079	-5.300
387.102	-1.000
387.124	-2.300
387.147	-3.700
387.169	1.500
387.191	-1.000
387.214	0.000
387.236	-1.800
387.259	-4.100
387.281	-0.900
387.303	-2.400
387.326	0.700
387.348	-2.100
387.370	-4.400
387.393	-1.600
387.415	0.700
387.438	-2.800
387.460	-3.000
387.482	1.000
387.505	-1.100
387.527	-2.700
387.549	0.400
387.572	0.200
387.594	-2.800
387.617	-0.700
387.639	-3.400
387.661	-1.000
387.684	-1.900
387.706	-2.300
387.728	1.500
387.751	-2.300
387.773	-1.500
387.796	-3.200
387.818	0.600
387.840	-0.500
387.863	0.500
387.885	-0.500
387.907	-3.200
387.930	-1.000
387.952	-4.000
387.975	2.500
387.997	-3.500
388.019	-2.600
388.042	-4.800
388.064	-0.700
388.086	1.200
388.109	-1.500
388.131	-1.700
388.154	-2.400
388.176	-1.600
388.198	-0.900
388.221	2.600
388.243	-3.000
388.266	-2.500
388.288	-2.800
388.310	0.900
388.333	-2.900
388.355	-2.700
388.377	0.400
388.400	0.500
388.422	-2.500
388.445	-0.700
388.467	-0.300
388.489	0.600
388.512	-0.500
388.534	0.100
388.556	-4.100
388.579	-0.900
388.601	0.300
388.624	2.500
388.646	-2.000
388.668	-2.100
388.691	-0.400
388.713	-5.200
388.735	-1.200
388.758	0.200
388.780	1.000
388.803	0.400
388.825	-4.800
388.847	3.400
388.870	-1.200
388.892	-0.300
388.914	-2.900
388.937	-3.000
388.959	-1.600
388.982	-2.000
389.004	-0.800
389.026	-1.000
389.049	-1.600
389.071	-1.200
389.094	0.300
389.116	-2.600
389.138	-0.100
389.161	-1.400
389.183	-1.800
389.205	-3.500
389.228	-0.400
389.250	-0.200
389.273	-3.000
389.295	-1.400
389.317	-3.100
389.340	-0.400
389.362	-3.000
389.384	1.300
389.407	-0.500
389.429	-1.800
389.452	-1.400
389.474	-4.100
389.496	0.100
389.519	0.400
389.541	-3.400
389.563	1.300
389.586	-0.700
389.608	-4.800
389.631	-2.900
389.653	1.500
389.675	-0.600
389.698	-4.000
389.720	0.500
389.742	-1.300
389.765	-2.100
389.787	-2.400
389.810	-1.800
389.832	-1.100
389.854	1.200
389.877	-4.000
389.899	0.000
389.922	-0.100
389.944	0.700
389.966	-1.400
389.989	-6.200
390.011	2.100
390.033	0.000
390.056	-4.600
390.078	-3.800
390.101	-1.700
390.123	1.500
390.145	-2.900
390.168	-3.400
390.190	-3.400
390.212	0.000
390.235	1.700
390.257	0.500
390.280	-5.400
390.302	-0.400
390.324	-2.100
390.347	-4.800
390.369	-1.600
390.391	-3.000
390.414	-2.400
390.436	-3.800
390.459	-3.800
390.481	-2.100
390.503	-2.100
390.526	-1.200
390.548	0.600
390.570	-0.800
390.593	-0.600
390.615	1.400
390.638	-0.200
390.660	0.100
390.682	-1.300
390.705	-3.600
390.727	0.700
390.749	-2.300
390.772	-1.900
390.794	0.000
390.817	0.400
390.839	0.200
390.861	-1.200
390.884	0.000
390.906	-2.400
390.928	-0.700
390.951	-3.000
390.973	0.200
390.996	-2.300
391.018	-3.100
391.040	-2.600
391.063	0.200
391.085	-0.900
391.108	-1.800
391.130	-0.400
391.152	-2.700
391.175	0.500
391.197	-2.400
391.219	-3.200
391.242	-2.200
391.264	-0.100
391.287	-1.000
391.309	0.600
391.331	-1.800
391.354	-0.900
391.376	-0.500
391.398	-2.400
391.421	-3.100
391.443	-2.200
391.466	0.800
391.488	-0.200
391.510	0.900
391.533	-3.800
391.555	-2.100
391.577	-1.000
391.600	-3.300
391.622	-2.500
391.645	-2.900
391.667	1.600
391.689	-1.300
391.712	0.300
391.734	-2.900
391.757	0.000
391.779	0.600
391.801	-0.500
391.824	-5.000
391.846	1.800
391.868	-2.400
391.891	-1.000
391.913	-1.400
391.936	-1.500
391.958	-6.400
391.980	-2.200
392.003	-4.200
392.025	-2.300
392.047	-0.700
392.070	-0.100
392.092	-1.900
392.115	-2.800
392.137	-3.100
392.159	-0.300
392.182	1.200
392.204	-0.800
392.226	-0.800
392.249	0.300
392.271	-3.500
392.294	-2.500
392.316	-4.600
392.338	-9.300
392.361	3.400
392.383	-1.100
392.405	-2.800
392.428	-0.900
392.450	-1.400
392.473	-1.400
392.495	-5.400
392.517	-2.400
392.540	0.100
392.562	-4.100
392.585	-0.200
392.607	0.500
392.629	-3.600
392.652	-1.600
392.674	-0.300
392.696	-2.600
392.719	1.100
392.741	-2.700
392.764	-0.300
392.786	0.400
392.808	-0.900
392.831	-2.600
392.853	-1.600
392.875	-0.100
392.898	-2.500
392.920	-6.900
392.943	-0.800
392.965	-1.800
392.987	-1.200
393.010	-0.100
393.032	-1.900
393.054	-2.900
393.077	-0.200
393.099	-6.400
393.122	-3.000
393.144	-1.300
393.166	-4.900
393.189	-5.900
393.211	-1.000
393.233	-2.300
393.256	-0.200
393.278	2.000
393.301	1.200
393.323	-0.400
393.345	-1.900
393.368	0.100
393.390	-0.200
393.412	-1.500
393.435	-3.100
393.457	-1.000
393.480	-1.400
393.502	-1.300
393.524	-2.800
393.547	-3.100
393.569	-1.200
393.592	-0.500
393.614	-3.200
393.636	0.000
393.659	-0.900
393.681	-2.400
393.703	-5.400
393.726	-2.700
393.748	-2.600
393.771	-3.000
393.793	-6.200
393.815	-1.900
393.838	-4.600
393.860	-5.000
393.882	-5.500
393.905	-2.400
393.927	-6.300
393.950	-3.100
393.972	-5.800
393.994	-5.700
394.017	-0.800
394.039	-5.400
394.061	-5.100
394.084	-5.800
394.106	-1.900
394.129	-5.900
394.151	-7.100
394.173	-6.700
394.196	-6.100
394.218	-4.700
394.240	-4.600
394.263	-4.700
394.285	-12.600
394.308	-9.300
394.330	-9.200
394.352	-8.300
394.375	-8.000
394.397	-5.700
394.419	-6.900
394.442	-9.100
394.464	-3.000
394.487	-10.100
394.509	-12.400
394.531	-15.500
394.554	-12.700
394.576	-8.200
394.599	-16.600
394.621	-9.800
394.643	-6.700
394.666	-14.300
394.688	-4.000
394.710	-17.000
394.733	-14.900
394.755	-13.300
394.778	-19.400
394.800	-14.000
394.822	-11.100
394.845	-24.800
394.867	-26.800
394.889	-16.800
394.912	-13.700
394.934	-3.300
394.957	-12.000
394.979	-1.900
395.001	-12.800
395.024	-17.100
395.046	-21.000
395.068	-15.600
395.091	-10.000
395.113	-12.800
395.136	-3.700
395.158	-4.800
395.180	-21.000
395.203	-20.400
395.225	-14.300
395.247	-14.000
395.270	-15.300
395.292	-11.100
395.315	-17.000
395.337	-14.600
395.359	-15.700
395.382	-14.000
395.404	-7.200
395.427	-18.800
395.449	-14.200
395.471	-8.800
395.494	-4.800
395.516	-15.100
395.538	-9.500
395.561	-7.500
395.583	-8.400
395.606	-5.000
395.628	-5.300
395.650	-9.200
395.673	-11.800
395.695	-7.200
395.717	-6.500
395.740	-2.900
395.762	2.300
395.785	-7.600
395.807	-8.300
395.829	-6.500
395.852	-9.700
395.874	-14.100
395.896	-15.500
395.919	-7.800
395.941	-10.100
395.964	-11.500
395.986	-10.100
396.008	-12.400
396.031	-6.800
396.053	-9.000
396.075	-17.400
396.098	-9.700
396.120	-3.900
396.143	-7.100
396.165	-2.800
396.187	-10.600
396.210	-6.300
396.232	-4.900
396.255	-1.700
396.277	-7.500
396.299	-6.500
396.322	-7.700
396.344	-6.100
396.366	-9.600
396.389	-5.300
396.411	-7.000
396.434	-10.400
396.456	-6.900
396.478	-2.800
396.501	-4.800
396.523	-6.400
396.545	-8.600
396.568	-6.900
396.590	-4.600
396.613	-3.700
396.635	-6.600
396.657	-5.500
396.680	-8.100
396.702	-8.200
396.724	-6.500
396.747	-9.300
396.769	-5.200
396.792	0.100
396.814	-6.400
396.836	-4.500
396.859	-0.400
396.881	-6.600
396.903	-14.200
396.926	-13.900
396.948	-5.700
396.971	-7.200
396.993	-11.700
397.015	-5.300
397.038	-6.900
397.060	-7.000
397.082	-20.500
397.105	-7.500
397.127	-5.700
397.150	-9.400
397.172	-10.300
397.194	-3.500
397.217	-20.500
397.239	-18.400
397.262	-8.000
397.284	-22.200
397.306	-20.600
397.329	-17.800
397.351	-18.600
397.373	-17.700
397.396	-35.500
397.418	-39.200
397.441	-37.500
397.463	-46.400
397.485	-31.100
397.508	-60.600
397.530	-66.600
397.552	-93.700
397.575	-114.300
397.597	-122.800
397.620	-145.200
397.642	-143.700
397.664	-155.500
397.687	-154.700
397.709	-104.200
397.731	-155.300
397.754	-172.300
397.776	-220.600
397.799	-177.300
397.821	-212.400
397.843	-246.100
397.866	-314.600
397.888	-396.700
397.910	-1065.700
397.933	-2317.300
397.955	-2172.400
397.978	-1377.200
398.000	-924.200
398.022	-731.800
398.045	-15.200
398.067	0.000
398.090	0.000
398.112	0.000
398.134	0.000
398.157	0.000
398.179	0.000
398.201	-4884.800
398.224	-2490.000
398.246	-1759.400
398.269	-1560.500
398.291	-1199.000
398.313	-729.800
398.336	-404.500
398.358	-311.100
398.380	-247.200
398.403	-190.100
398.425	-171.600
398.448	-109.300
398.470	-120.300
398.492	-98.800
398.515	-76.700
398.537	-43.600
398.559	-49.200
398.582	-47.200
398.604	-34.700
398.627	-23.300
398.649	-19.800
398.671	-3.400
398.694	0.700
398.716	8.500
398.738	-19.000
398.761	-24.200
398.783	-21.000
398.806	-21.500
398.828	-8.600
398.850	44.200
398.873	125.400
398.895	121.100
398.918	9.900
398.940	-5.000
398.962	-8.300
398.985	-5.900
399.007	21.100
399.029	133.100
399.052	305.900
399.074	248.100
399.097	37.700
399.119	-3.300
399.141	-5.700
399.164	3.600
399.186	36.100
399.208	194.200
399.231	428.300
399.253	324.900
399.276	53.800
399.298	-3.200
399.320	-1.500
399.343	6.800
399.365	40.400
399.387	211.300
399.410	484.600
399.432	356.600
399.455	67.400
399.477	4.900
399.499	-0.500
399.522	7.200
399.544	53.100
399.566	182.700
399.589	412.800
399.611	319.800
399.634	56.900
399.656	4.700
399.678	-6.000
399.701	3.100
399.723	29.400
399.745	116.700
399.768	269.900
399.790	180.400
399.813	25.100
399.835	0.500
399.857	0.200
399.880	4.500
399.902	10.300
399.925	63.700
399.947	171.500
399.969	135.800
399.992	26.400
400.014	-1.400
400.036	0.600
400.059	7.100
400.081	2.100
400.104	31.400
400.126	77.900
400.148	65.100
400.171	14.200
400.193	-7.000
400.215	-12.500
400.238	-9.100
400.260	0.000
400.283	19.800
400.305	37.300
400.327	27.900
400.350	-9.400
400.372	-10.800
400.394	-6.000
400.417	-5.400
400.439	-13.000
400.462	1.700
400.484	35.000
400.506	37.400
400.529	2.600
400.551	-1.900
400.573	-4.400
400.596	-8.200
400.618	-17.600
400.641	-3.800
400.663	3.600
400.685	-2.100
400.708	1.100
400.730	-13.200
400.753	-9.800
400.775	-6.400
400.797	-2.400
400.820	4.300
400.842	14.800
400.864	27.500
400.887	-7.500
400.909	-12.000
400.932	-13.700
400.954	-13.300
400.976	-10.600
400.999	57.700
401.021	226.100
401.043	205.500
401.066	33.800
401.088	-6.100
401.111	-7.000
401.133	-0.300
401.155	31.400
401.178	443.000
401.200	1563.500
401.222	1253.700
401.245	206.600
401.267	27.300
401.290	18.900
401.312	13.600
401.334	39.700
401.357	398.500
401.379	1245.300
401.401	832.600
401.424	127.900
401.446	11.600
401.469	1.400
401.491	-6.000
401.513	-5.500
401.536	8.900
401.558	23.600
401.581	12.400
401.603	-8.600
401.625	-6.400
401.648	-11.100
401.670	-9.300
401.692	-7.900
401.715	18.500
401.737	76.100
401.760	39.000
401.782	-2.500
401.804	-1.100
401.827	-1.400
401.849	-6.200
401.871	3.500
401.894	27.800
401.916	58.800
401.939	22.900
401.961	-0.400
401.983	-0.400
402.006	-4.700
402.028	2.000
402.050	3.200
402.073	20.500
402.095	29.700
402.118	10.100
402.140	-1.600
402.162	-1.700
402.185	-0.200
402.207	1.100
402.229	3.300
402.252	7.900
402.274	9.500
402.297	1.100
402.319	-2.000
402.341	-2.300
402.364	0.100
402.386	-0.600
402.408	-3.900
402.431	-2.400
402.453	0.700
402.476	0.600
402.498	-2.300
402.520	-0.400
402.543	1.800
402.565	3.400
402.588	-1.800
402.610	2.700
402.632	4.300
402.655	1.700
402.677	0.500
402.699	-0.100
402.722	-0.900
402.744	1.500
402.767	4.300
402.789	0.400
402.811	2.200
402.834	0.700
402.856	-0.400
402.878	-0.300
402.901	1.800
402.923	-2.800
402.946	-0.600
402.968	-0.100
402.990	1.500
403.013	-1.700
403.035	-0.600
403.057	-0.800
403.080	1.200
403.102	1.300
403.125	-1.400
403.147	1.900
403.169	-0.900
403.192	-0.900
403.214	-2.000
403.236	0.000
403.259	1.000
403.281	-0.300
403.304	-0.800
403.326	-0.600
403.348	-0.300
403.371	1.100
403.393	-2.600
403.415	-2.200
403.438	-0.800
403.460	-1.900
403.483	1.300
403.505	0.900
403.527	-0.200
403.550	-1.900
403.572	-1.100
403.595	-0.100
403.617	-1.700
403.639	0.300
403.662	-0.400
403.684	1.400
403.706	0.500
403.729	-1.200
403.751	-0.300
403.774	-3.100
403.796	-1.000
403.818	0.600
403.841	0.100
403.863	-0.100
403.885	0.200
403.908	-0.200
403.930	-2.100
403.953	0.300
403.975	3.200
403.997	4.200
404.020	1.900
404.042	1.300
404.064	0.800
404.087	-0.700
404.109	0.400
404.132	2.300
404.154	3.900
404.176	4.500
404.199	0.500
404.221	0.000
404.243	0.300
404.266	-0.400
404.288	-0.400
404.311	2.700
404.333	7.300
404.355	3.600
404.378	2.300
404.400	1.800
404.423	1.200
404.445	0.900
404.467	1.000
404.490	5.000
404.512	6.300
404.534	1.400
404.557	0.500
404.579	0.400
404.602	-2.200
404.624	1.900
404.646	3.500
404.669	6.100
404.691	2.400
404.713	3.300
404.736	0.400
404.758	0.800
404.781	2.300
404.803	3.800
404.825	7.200
404.848	4.400
404.870	0.300
404.892	1.700
404.915	0.000
404.937	-0.200
404.960	1.200
404.982	3.600
405.004	5.200
405.027	2.500
405.049	1.200
405.072	1.300
405.094	-1.500
405.116	-1.000
405.139	4.400
405.161	5.600
405.183	1.200
405.206	0.700
405.228	-1.400
405.251	-1.600
405.273	0.800
405.295	3.200
405.318	5.300
405.340	2.600
405.362	-1.300
405.385	-0.900
405.407	-0.100
405.430	-0.200
405.452	1.200
405.474	2.400
405.497	1.700
405.519	-1.400
405.541	-1.600
405.564	0.400
405.586	-2.600
405.609	0.400
405.631	3.600
405.653	2.200
405.676	-0.700
405.698	-0.300
405.720	-2.800
405.743	0.300
405.765	-0.400
405.788	1.800
405.810	2.000
405.832	1.600
405.855	0.800
405.877	-0.800
405.899	-2.400
405.922	-0.600
405.944	1.600
405.967	2.000
405.989	1.400
406.011	0.400
406.034	-0.500
406.056	-2.400
406.078	0.600
406.101	4.800
406.123	3.000
406.146	0.500
406.168	-1.200
406.190	0.500
406.213	0.200
406.235	1.300
406.258	2.500
406.280	4.000
406.302	1.100
406.325	0.700
406.347	0.300
406.369	1.200
406.392	1.100
406.414	1.600
406.437	2.200
406.459	0.300
406.481	-0.500
406.504	-0.500
406.526	-0.900
406.548	0.000
406.571	1.700
406.593	2.200
406.616	-0.300
406.638	-0.500
406.660	1.900
406.683	-0.700
406.705	0.400
406.727	0.100
406.750	-0.500
406.772	0.800
406.795	0.900
406.817	0.200
406.839	0.400
406.862	0.200
406.884	2.400
406.906	-0.300
406.929	-1.600
406.951	-0.300
406.974	0.600
406.996	2.900
407.018	1.500
407.041	0.400
407.063	-0.100
407.086	2.600
407.108	1.200
407.130	-0.500
407.153	0.100
407.175	-1.800
407.197	1.000
407.220	-0.700
407.242	0.600
407.265	0.400
407.287	2.600
407.309	-0.700
407.332	-0.100
407.354	1.100
407.376	0.700
407.399	-0.100
407.421	-0.300
407.444	0.900
407.466	-1.300
407.488	0.200
407.511	-1.300
407.533	0.600
407.555	0.100
407.578	0.800
407.600	1.000
407.623	0.400
407.645	-1.400
407.667	2.300
407.690	0.400
407.712	1.400
407.734	1.300
407.757	-1.200
407.779	0.500
407.802	-0.700
407.824	-0.100
407.846	1.000
407.869	0.300
407.891	-0.400
407.914	0.200
407.936	-0.200
407.958	-1.200
407.981	-0.700
408.003	0.500
408.025	-1.700
408.048	0.200
408.070	0.300
408.093	0.700
408.115	-0.100
408.137	0.200
408.160	0.400
408.182	-0.300
408.204	0.500
408.227	1.200
408.249	-1.100
408.272	3.400
408.294	-1.000
408.316	-1.600
408.339	0.700
408.361	0.800
408.383	-0.400
408.406	-0.100
408.428	1.800
408.451	1.200
408.473	0.600
408.495	0.000
408.518	-0.300
408.540	2.600
408.562	0.100
408.585	0.200
408.607	0.800
408.630	-0.200
408.652	-1.100
408.674	0.000
408.697	-0.100
408.719	0.900
408.741	1.500
408.764	0.000
408.786	-1.200
408.809	1.700
408.831	1.000
408.853	1.600
408.876	0.500
408.898	1.700
408.921	1.700
408.943	-0.300
408.965	1.300
408.988	2.000
409.010	0.700
409.032	-0.400
409.055	-1.300
409.077	2.300
409.100	-1.200
409.122	1.000
409.144	-0.500
409.167	-2.000
409.189	0.800
409.211	0.700
409.234	-0.700
409.256	-1.200
409.279	-0.300
409.301	-2.100
409.323	0.200
409.346	0.900
409.368	0.000
409.390	0.000
409.413	0.000
409.435	-1.500
