386.542	-2.400
386.565	-2.400
386.587	0.000
386.610	-4.700
386.632	-5.300
386.654	-5.400
386.677	-3.400
386.699	-3.800
386.721	-3.100
386.744	0.700
386.766	-3.800
386.789	-0.800
386.811	-2.400
386.833	-5.400
386.856	1.100
386.878	-4.600
386.900	-1.900
386.923	-4.800
386.945	-1.400
386.968	0.800
386.990	-1.700
387.012	-1.700
387.035	-0.700
387.057	0.100
387.079	-0.900
387.102	-3.500
387.124	-2.900
387.147	-3.000
387.169	-3.300
387.191	1.800
387.214	-2.800
387.236	-2.700
387.259	-1.300
387.281	0.000
387.303	-4.200
387.326	-3.000
387.348	1.200
387.370	0.500
387.393	-1.400
387.415	0.300
387.438	-2.000
387.460	-2.300
387.482	-1.800
387.505	0.800
387.527	-1.500
387.549	-3.000
387.572	0.500
387.594	-5.400
387.617	-1.700
387.639	-1.900
387.661	-0.800
387.684	-2.100
387.706	-4.500
387.728	-5.000
387.751	-1.800
387.773	-1.900
387.796	-3.000
387.818	-3.100
387.840	2.100
387.863	-0.800
387.885	-3.900
387.907	-2.000
387.930	0.600
387.952	-1.100
387.975	0.500
387.997	-1.000
388.019	1.400
388.042	1.100
388.064	-0.800
388.086	-0.800
388.109	-1.700
388.131	-3.000
388.154	-2.500
388.176	-0.100
388.198	-0.400
388.221	0.500
388.243	-0.800
388.266	-2.400
388.288	0.200
388.310	-2.700
388.333	-2.400
388.355	-2.100
388.377	0.600
388.400	-3.500
388.422	-3.100
388.445	-5.100
388.467	-3.700
388.489	-0.900
388.512	1.800
388.534	-2.300
388.556	-4.300
388.579	1.500
388.601	-2.300
388.624	-3.100
388.646	-1.600
388.668	-4.000
388.691	2.000
388.713	-2.400
388.735	-0.700
388.758	-1.500
388.780	-2.500
388.803	-3.500
388.825	-1.000
388.847	-1.000
388.870	-1.800
388.892	2.700
388.914	-1.200
388.937	-4.500
388.959	-1.100
388.982	-0.600
389.004	-2.900
389.026	-3.800
389.049	-1.300
389.071	-2.700
389.094	-4.200
389.116	-1.700
389.138	-0.200
389.161	-1.800
389.183	-0.200
389.205	-4.900
389.228	-4.000
389.250	-2.200
389.273	-4.400
389.295	-2.900
389.317	-2.600
389.340	-1.700
389.362	-2.200
389.384	-2.900
389.407	-3.700
389.429	-1.200
389.452	-1.300
389.474	-2.300
389.496	-1.400
389.519	-0.800
389.541	0.800
389.563	-2.900
389.586	2.700
389.608	-0.600
389.631	-2.100
389.653	-3.700
389.675	-0.100
389.698	-2.000
389.720	-1.400
389.742	-0.200
389.765	-1.500
389.787	-3.600
389.810	-3.500
389.832	-2.600
389.854	-2.700
389.877	-4.800
389.899	1.400
389.922	-0.700
389.944	-1.500
389.966	-0.500
389.989	-0.500
390.011	-3.600
390.033	-3.500
390.056	-2.300
390.078	-5.300
390.101	0.000
390.123	-1.400
390.145	0.000
390.168	-1.100
390.190	1.700
390.212	-1.000
390.235	0.500
390.257	-0.400
390.280	-2.300
390.302	-0.600
390.324	-1.900
390.347	-0.400
390.369	-0.300
390.391	-2.700
390.414	-2.700
390.436	-4.600
390.459	-0.500
390.481	-1.500
390.503	-2.500
390.526	-1.300
390.548	-1.200
390.570	-3.200
390.593	-2.100
390.615	-0.400
390.638	-1.300
390.660	0.200
390.682	-0.900
390.705	-3.300
390.727	-0.700
390.749	-1.600
390.772	-1.400
390.794	-3.100
390.817	-4.200
390.839	1.300
390.861	-0.700
390.884	0.000
390.906	-4.900
390.928	-2.700
390.951	-4.000
390.973	-3.500
390.996	1.500
391.018	-1.400
391.040	-2.600
391.063	-1.200
391.085	-4.500
391.108	-4.100
391.130	-1.300
391.152	-1.300
391.175	0.300
391.197	-0.800
391.219	1.600
391.242	-1.200
391.264	-1.000
391.287	-0.900
391.309	-3.300
391.331	0.100
391.354	-1.500
391.376	-1.300
391.398	-2.800
391.421	-2.300
391.443	-3.800
391.466	-1.000
391.488	-3.600
391.510	-1.000
391.533	-1.600
391.555	1.300
391.577	-2.900
391.600	-4.300
391.622	-1.300
391.645	-2.200
391.667	-3.100
391.689	-1.300
391.712	-1.800
391.734	0.700
391.757	-5.700
391.779	-2.600
391.801	-0.200
391.824	-2.600
391.846	0.900
391.868	-2.000
391.891	-0.800
391.913	-4.600
391.936	-0.400
391.958	-3.100
391.980	-2.800
392.003	-2.800
392.025	-3.500
392.047	-2.700
392.070	-3.000
392.092	-6.200
392.115	-3.100
392.137	-1.800
392.159	-3.300
392.182	-5.300
392.204	-0.500
392.226	-2.700
392.249	2.100
392.271	-0.700
392.294	0.800
392.316	-0.900
392.338	-4.400
392.361	-3.400
392.383	-2.500
392.405	-4.200
392.428	0.800
392.450	-3.300
392.473	-0.200
392.495	-6.700
392.517	-2.700
392.540	-0.800
392.562	-6.400
392.585	-1.600
392.607	-3.000
392.629	-1.500
392.652	0.400
392.674	-7.400
392.696	-3.200
392.719	-1.200
392.741	-2.000
392.764	-2.700
392.786	-4.600
392.808	-4.800
392.831	-2.700
392.853	-1.200
392.875	-5.500
392.898	-1.200
392.920	0.700
392.943	-6.800
392.965	-6.000
392.987	-5.400
393.010	-3.600
393.032	-6.300
393.054	-2.900
393.077	-3.100
393.099	-6.400
393.122	-3.400
393.144	-3.500
393.166	-1.800
393.189	-2.600
393.211	-6.600
393.233	-1.900
393.256	-7.200
393.278	-6.500
393.301	-2.900
393.323	-0.900
393.345	-1.400
393.368	-3.400
393.390	-1.100
393.412	-2.000
393.435	-6.500
393.457	-5.000
393.480	-4.500
393.502	-3.600
393.524	-8.600
393.547	-1.500
393.569	-5.700
393.592	-3.900
393.614	-2.900
393.636	-0.800
393.659	-5.400
393.681	-5.200
393.703	-3.000
393.726	-1.500
393.748	-1.800
393.771	-2.100
393.793	0.700
393.815	-1.000
393.838	-6.300
393.860	-5.100
393.882	-5.100
393.905	-2.200
393.927	-3.100
393.950	-1.700
393.972	-1.900
393.994	-2.600
394.017	0.400
394.039	-1.600
394.061	-3.300
394.084	9.100
394.106	20.400
394.129	25.900
394.151	5.700
394.173	-4.300
394.196	-12.000
394.218	-13.800
394.240	-11.600
394.263	-6.300
394.285	-5.400
394.308	-11.500
394.330	-14.700
394.352	-13.100
394.375	-9.700
394.397	-7.200
394.419	-20.100
394.442	-15.700
394.464	-16.900
394.487	-15.000
394.509	-25.800
394.531	-16.300
394.554	-21.800
394.576	-26.700
394.599	-25.900
394.621	-25.500
394.643	-15.800
394.666	-17.700
394.688	-34.600
394.710	-36.500
394.733	-25.300
394.755	-31.400
394.778	-22.100
394.800	-29.100
394.822	-36.100
394.845	-29.500
394.867	-37.000
394.889	-31.100
394.912	-27.000
394.934	-36.300
394.957	-25.600
394.979	-32.100
395.001	-26.500
395.024	-30.100
395.046	-25.100
395.068	-23.000
395.091	-34.900
395.113	-30.200
395.136	-24.300
395.158	-35.500
395.180	-34.200
395.203	-25.000
395.225	-36.000
395.247	-36.800
395.270	-27.800
395.292	-28.900
395.315	-28.900
395.337	-29.800
395.359	-28.800
395.382	-25.000
395.404	-34.100
395.427	-27.800
395.449	-22.800
395.471	-22.600
395.494	-20.000
395.516	-19.600
395.538	-12.600
395.561	-14.000
395.583	-21.600
395.606	-15.400
395.628	-4.500
395.650	-10.900
395.673	-17.100
395.695	-15.200
395.717	-17.500
395.740	-17.600
395.762	-15.800
395.785	-15.900
395.807	-13.500
395.829	-22.300
395.852	-16.000
395.874	-14.100
395.896	-15.600
395.919	-15.000
395.941	-11.900
395.964	-10.500
395.986	-15.600
396.008	-11.900
396.031	-16.700
396.053	-13.700
396.075	-12.500
396.098	-13.400
396.120	-16.100
396.143	-8.000
396.165	-10.600
396.187	-2.900
396.210	-15.700
396.232	-7.900
396.255	-15.300
396.277	-10.400
396.299	-8.500
396.322	-9.700
396.344	-12.000
396.366	-21.700
396.389	-12.900
396.411	-9.600
396.434	-12.900
396.456	-14.300
396.478	-17.700
396.501	-14.100
396.523	-23.500
396.545	-13.800
396.568	-14.900
396.590	-20.000
396.613	-14.100
396.635	-16.300
396.657	-16.500
396.680	-16.400
396.702	-19.900
396.724	-22.700
396.747	-26.000
396.769	-16.900
396.792	-21.000
396.814	-15.100
396.836	-20.600
396.859	-21.300
396.881	-11.700
396.903	-16.500
396.926	-10.600
396.948	-24.900
396.971	-16.500
396.993	-27.800
397.015	-20.800
397.038	-27.500
397.060	-21.500
397.082	-25.300
397.105	-21.400
397.127	-23.100
397.150	-24.300
397.172	-21.700
397.194	-23.800
397.217	-28.900
397.239	-28.900
397.262	-34.600
397.284	-24.900
397.306	-26.000
397.329	-32.600
397.351	-32.900
397.373	-24.800
397.396	-31.700
397.418	-37.300
397.441	-46.900
397.463	-33.800
397.485	-35.100
397.508	-66.100
397.530	-93.700
397.552	-129.000
397.575	-151.300
397.597	-151.600
397.620	-201.300
397.642	-198.600
397.664	-192.600
397.687	-211.600
397.709	-251.000
397.731	-303.300
397.754	-334.500
397.776	-345.700
397.799	-393.900
397.821	-425.800
397.843	-446.500
397.866	-658.300
397.888	-488.100
397.910	-497.700
397.933	-1594.500
397.955	-2173.500
397.978	-1855.100
398.000	-1911.800
398.022	-2013.700
398.045	-2.600
398.067	0.000
398.090	0.000
398.112	0.000
398.134	0.000
398.157	0.000
398.179	0.000
398.201	-7140.200
398.224	-3157.200
398.246	-2584.500
398.269	-2097.100
398.291	-1555.800
398.313	-948.200
398.336	-544.000
398.358	-418.500
398.380	-342.100
398.403	-313.800
398.425	-251.400
398.448	-216.000
398.470	-214.800
398.492	-178.600
398.515	-117.000
398.537	-79.200
398.559	-80.200
398.582	-65.000
398.604	-74.800
398.627	-72.900
398.649	-48.800
398.671	-35.200
398.694	-8.400
398.716	-16.200
398.738	-38.000
398.761	-40.700
398.783	-44.900
398.806	-31.600
398.828	-19.800
398.850	30.000
398.873	108.700
398.895	106.400
398.918	1.100
398.940	-21.000
398.962	-21.300
398.985	-14.700
399.007	8.000
399.029	134.400
399.052	316.100
399.074	268.800
399.097	41.200
399.119	-8.400
399.141	-16.700
399.164	-4.900
399.186	16.700
399.208	174.200
399.231	443.500
399.253	373.300
399.276	62.800
399.298	-0.400
399.320	0.700
399.343	2.300
399.365	46.600
399.387	197.600
399.410	509.900
399.432	406.500
399.455	77.900
399.477	3.100
399.499	-4.500
399.522	3.700
399.544	39.200
399.566	178.800
399.589	465.900
399.611	382.700
399.634	60.500
399.656	7.900
399.678	6.700
399.701	3.400
399.723	23.600
399.745	118.800
399.768	312.700
399.790	234.500
399.813	26.400
399.835	1.400
399.857	-0.800
399.880	-3.900
399.902	9.300
399.925	74.000
399.947	217.900
399.969	182.400
399.992	26.400
400.014	-3.500
400.036	0.900
400.059	-0.200
400.081	0.900
400.104	32.300
400.126	109.500
400.148	90.900
400.171	12.100
400.193	-3.700
400.215	-10.500
400.238	-13.600
400.260	-11.600
400.283	13.100
400.305	61.900
400.327	33.600
400.350	-2.800
400.372	-11.700
400.394	-11.200
400.417	-7.000
400.439	-12.300
400.462	1.600
400.484	58.800
400.506	49.000
400.529	6.000
400.551	-12.200
400.573	-17.000
400.596	-17.800
400.618	-12.100
400.641	-4.400
400.663	10.100
400.685	12.800
400.708	-17.700
400.730	-30.100
400.753	-26.800
400.775	-31.800
400.797	-23.100
400.820	-25.200
400.842	-9.100
400.864	-12.400
400.887	-21.100
400.909	-31.000
400.932	-24.200
400.954	-28.600
400.976	-19.800
400.999	-23.400
401.021	-16.900
401.043	-22.700
401.066	-24.300
401.088	-31.000
401.111	-20.400
401.133	-30.500
401.155	-27.500
401.178	-13.200
401.200	0.500
401.222	-12.900
401.245	-22.600
401.267	-26.000
401.290	-28.300
401.312	-24.300
401.334	-26.900
401.357	-20.000
401.379	-5.800
401.401	-12.300
401.424	-16.100
401.446	-29.600
401.469	-26.900
401.491	-18.100
401.513	-24.900
401.536	-12.500
401.558	-11.500
401.581	-5.800
401.603	-13.500
401.625	-26.500
401.648	-18.700
401.670	-9.000
401.692	-14.200
401.715	-6.100
401.737	9.000
401.760	5.700
401.782	-6.700
401.804	-5.100
401.827	-1.000
401.849	-2.300
401.871	2.200
401.894	26.400
401.916	58.400
401.939	27.300
401.961	1.000
401.983	6.500
402.006	12.500
402.028	47.400
402.050	256.200
402.073	896.100
402.095	1186.100
402.118	424.700
402.140	60.900
402.162	37.700
402.185	45.400
402.207	130.400
402.229	932.200
402.252	4053.600
402.274	5241.200
402.297	1479.800
402.319	143.900
402.341	43.300
402.364	27.500
402.386	40.700
402.408	184.400
402.431	574.300
402.453	512.400
402.476	114.600
402.498	15.300
402.520	9.100
402.543	5.500
402.565	3.800
402.588	11.500
402.610	16.200
402.632	7.200
402.655	5.100
402.677	2.900
402.699	1.300
402.722	1.200
402.744	3.500
402.767	3.000
402.789	11.000
402.811	6.700
402.834	2.200
402.856	2.500
402.878	-2.000
402.901	1.300
402.923	-0.500
402.946	1.500
402.968	3.700
402.990	-1.500
403.013	0.300
403.035	1.800
403.057	2.500
403.080	0.000
403.102	1.500
403.125	2.600
403.147	4.300
403.169	0.400
403.192	0.500
403.214	-0.800
403.236	-0.600
403.259	0.400
403.281	0.700
403.304	6.600
403.326	3.600
403.348	-0.300
403.371	1.300
403.393	0.800
403.415	0.800
403.438	-0.200
403.460	1.600
403.483	3.000
403.505	3.100
403.527	1.900
403.550	0.600
403.572	2.200
403.595	-2.100
403.617	2.400
403.639	4.400
403.662	7.200
403.684	1.100
403.706	-0.700
403.729	-0.700
403.751	2.200
403.774	0.900
403.796	-1.000
403.818	7.600
403.841	1.900
403.863	-0.300
403.885	-1.600
403.908	0.900
403.930	-0.800
403.953	2.000
403.975	7.100
403.997	12.700
404.020	5.400
404.042	0.200
404.064	0.900
404.087	0.500
404.109	1.600
404.132	6.800
404.154	20.500
404.176	13.600
404.199	4.100
404.221	1.500
404.243	0.300
404.266	0.500
404.288	2.200
404.311	12.300
404.333	15.900
404.355	7.200
404.378	-0.400
404.400	-0.500
404.423	-1.000
404.445	1.200
404.467	9.600
404.490	25.100
404.512	19.400
404.534	3.900
404.557	-0.400
404.579	-1.500
404.602	0.900
404.624	0.600
404.646	16.100
404.669	21.200
404.691	9.700
404.713	1.700
404.736	-0.500
404.758	3.100
404.781	4.300
404.803	15.700
404.825	34.200
404.848	20.600
404.870	5.100
404.892	2.100
404.915	1.700
404.937	3.100
404.960	12.700
404.982	47.200
405.004	55.300
405.027	15.900
405.049	0.600
405.072	2.400
405.094	0.000
405.116	7.000
405.139	38.100
405.161	64.400
405.183	25.000
405.206	4.700
405.228	2.900
405.251	3.900
405.273	6.400
405.295	33.100
405.318	76.100
405.340	43.200
405.362	8.100
405.385	3.500
405.407	2.100
405.430	2.200
405.452	21.600
405.474	69.900
405.497	55.200
405.519	11.900
405.541	2.900
405.564	2.600
405.586	5.700
405.609	21.800
405.631	89.500
405.653	89.100
405.676	23.300
405.698	2.700
405.720	1.900
405.743	6.000
405.765	25.000
405.788	97.500
405.810	113.600
405.832	31.800
405.855	4.700
405.877	0.300
405.899	4.300
405.922	22.200
405.944	94.300
405.967	114.900
405.989	31.500
406.011	4.200
406.034	1.400
406.056	1.800
406.078	24.200
406.101	105.900
406.123	134.000
406.146	40.900
406.168	4.200
406.190	2.100
406.213	3.400
406.235	28.500
406.258	113.200
406.280	136.900
406.302	43.600
406.325	5.300
406.347	3.800
406.369	5.400
406.392	34.100
406.414	122.800
406.437	130.000
406.459	32.900
406.481	2.400
406.504	1.600
406.526	5.000
406.548	34.300
406.571	111.400
406.593	93.500
406.616	21.900
406.638	4.400
406.660	1.400
406.683	7.800
406.705	41.400
406.727	95.600
406.750	60.300
406.772	11.500
406.795	2.300
406.817	1.800
406.839	7.600
406.862	42.000
406.884	73.200
406.906	32.700
406.929	6.400
406.951	3.500
406.974	2.100
406.996	11.100
407.018	40.400
407.041	41.100
407.063	11.700
407.086	4.400
407.108	-0.600
407.130	3.200
407.153	12.200
407.175	26.100
407.197	17.600
407.220	1.900
407.242	3.400
407.265	1.100
407.287	2.200
407.309	10.200
407.332	15.500
407.354	5.300
407.376	2.300
407.399	0.800
407.421	1.200
407.444	3.200
407.466	5.900
407.488	4.800
407.511	2.000
407.533	-1.100
407.555	3.000
407.578	-0.200
407.600	0.300
407.623	3.400
407.645	3.100
407.667	0.800
407.690	0.000
407.712	0.900
407.734	0.100
407.757	1.000
407.779	0.400
407.802	-0.400
407.824	1.400
407.846	2.400
407.869	-0.600
407.891	0.900
407.914	-0.200
407.936	1.000
407.958	0.000
407.981	2.300
408.003	-1.700
408.025	2.400
408.048	0.800
408.070	1.200
408.093	-0.200
408.115	1.300
408.137	-0.800
408.160	-1.500
408.182	-0.100
408.204	-0.300
408.227	-0.600
408.249	-0.200
408.272	0.300
408.294	-1.400
408.316	1.700
408.339	0.200
408.361	0.900
408.383	1.000
408.406	0.300
408.428	-1.200
408.451	0.400
408.473	0.600
408.495	0.500
408.518	1.100
408.540	-0.700
408.562	-0.600
408.585	1.500
408.607	-0.700
408.630	-1.900
408.652	-2.700
408.674	0.500
408.697	0.900
408.719	0.100
408.741	0.200
408.764	1.900
408.786	-0.400
408.809	-0.900
408.831	-1.400
408.853	-2.200
408.876	0.800
408.898	0.600
408.921	-0.800
408.943	-1.000
408.965	2.100
408.988	0.500
409.010	-2.800
409.032	-0.600
409.055	-2.300
409.077	-1.000
409.100	-0.100
409.122	0.200
409.144	0.400
409.167	0.800
409.189	-0.400
409.211	-0.900
409.234	-0.100
409.256	1.200
409.279	0.100
409.301	-0.100
409.323	0.000
409.346	2.600
409.368	0.900
409.390	0.600
409.413	2.100
409.435	1.100
