386.542	1.300
386.565	-2.600
386.587	0.700
386.610	-1.600
386.632	0.200
386.654	-3.100
386.677	-2.600
386.699	0.700
386.721	-0.100
386.744	-0.100
386.766	-0.500
386.789	-0.400
386.811	-0.900
386.833	-1.500
386.856	0.600
386.878	0.100
386.900	0.200
386.923	-0.600
386.945	0.900
386.968	-2.800
386.990	-2.200
387.012	-2.300
387.035	-0.500
387.057	0.300
387.079	2.800
387.102	-1.200
387.124	-2.600
387.147	-0.800
387.169	-1.100
387.191	-0.500
387.214	-1.300
387.236	2.900
387.259	0.200
387.281	-1.400
387.303	-2.700
387.326	-2.300
387.348	1.000
387.370	-0.300
387.393	1.300
387.415	0.500
387.438	1.900
387.460	0.100
387.482	-0.200
387.505	1.300
387.527	-1.300
387.549	-0.900
387.572	0.700
387.594	-0.500
387.617	-0.700
387.639	1.100
387.661	0.700
387.684	-0.700
387.706	0.200
387.728	0.000
387.751	-1.900
387.773	2.100
387.796	-1.800
387.818	-0.700
387.840	-0.100
387.863	0.600
387.885	-0.900
387.907	0.400
387.930	1.300
387.952	3.100
387.975	-0.400
387.997	-0.600
388.019	-0.100
388.042	-1.300
388.064	1.600
388.086	1.200
388.109	0.500
388.131	-1.900
388.154	0.500
388.176	0.600
388.198	-0.900
388.221	-1.200
388.243	0.900
388.266	1.300
388.288	-0.600
388.310	2.800
388.333	-0.900
388.355	-0.300
388.377	1.500
388.400	1.200
388.422	1.300
388.445	1.300
388.467	1.500
388.489	2.500
388.512	-0.400
388.534	2.600
388.556	1.200
388.579	-1.100
388.601	0.500
388.624	-1.500
388.646	2.600
388.668	-0.200
388.691	2.900
388.713	-1.100
388.735	3.500
388.758	2.200
388.780	1.300
388.803	5.300
388.825	4.200
388.847	0.700
388.870	0.100
388.892	2.100
388.914	5.100
388.937	4.000
388.959	1.600
388.982	2.800
389.004	-0.600
389.026	1.600
389.049	0.100
389.071	3.700
389.094	2.800
389.116	-0.800
389.138	3.500
389.161	2.600
389.183	2.400
389.205	3.300
389.228	1.400
389.250	5.400
389.273	6.500
389.295	3.700
389.317	3.500
389.340	6.200
389.362	4.300
389.384	6.400
389.407	5.200
389.429	4.000
389.452	5.100
389.474	4.900
389.496	3.800
389.519	3.600
389.541	5.900
389.563	6.800
389.586	4.800
389.608	7.400
389.631	6.000
389.653	8.000
389.675	4.500
389.698	8.100
389.720	7.600
389.742	7.500
389.765	10.200
389.787	7.400
389.810	5.400
389.832	8.500
389.854	7.700
389.877	9.100
389.899	9.600
389.922	7.300
389.944	7.800
389.966	11.900
389.989	12.400
390.011	9.300
390.033	12.200
390.056	8.400
390.078	9.600
390.101	10.300
390.123	8.600
390.145	13.100
390.168	13.200
390.190	12.300
390.212	13.300
390.235	16.000
390.257	9.400
390.280	15.200
390.302	12.300
390.324	15.400
390.347	13.100
390.369	15.100
390.391	20.900
390.414	14.700
390.436	15.300
390.459	15.600
390.481	21.900
390.503	17.200
390.526	17.600
390.548	16.500
390.570	19.200
390.593	17.100
390.615	11.700
390.638	20.500
390.660	15.700
390.682	21.900
390.705	19.200
390.727	19.500
390.749	20.900
390.772	23.400
390.794	19.700
390.817	20.500
390.839	18.500
390.861	25.500
390.884	19.000
390.906	17.300
390.928	25.900
390.951	19.400
390.973	23.200
390.996	20.400
391.018	24.600
391.040	23.900
391.063	21.500
391.085	22.000
391.108	21.600
391.130	23.500
391.152	24.100
391.175	23.900
391.197	24.200
391.219	23.600
391.242	24.600
391.264	24.300
391.287	28.000
391.309	18.100
391.331	23.900
391.354	25.500
391.376	22.700
391.398	21.700
391.421	24.100
391.443	24.200
391.466	26.400
391.488	28.500
391.510	24.100
391.533	21.600
391.555	23.900
391.577	26.400
391.600	25.400
391.622	25.200
391.645	25.300
391.667	27.300
391.689	24.200
391.712	25.500
391.734	26.800
391.757	28.700
391.779	23.900
391.801	24.000
391.824	23.000
391.846	27.900
391.868	30.100
391.891	24.300
391.913	25.600
391.936	23.600
391.958	27.500
391.980	23.900
392.003	27.600
392.025	24.900
392.047	25.700
392.070	21.900
392.092	21.900
392.115	23.000
392.137	21.800
392.159	24.900
392.182	29.800
392.204	26.100
392.226	25.700
392.249	27.400
392.271	23.800
392.294	25.700
392.316	22.400
392.338	27.900
392.361	25.400
392.383	23.000
392.405	20.300
392.428	19.000
392.450	21.700
392.473	22.000
392.495	24.100
392.517	27.100
392.540	20.300
392.562	23.200
392.585	24.400
392.607	18.500
392.629	22.700
392.652	23.900
392.674	23.800
392.696	22.800
392.719	14.500
392.741	19.400
392.764	21.400
392.786	24.100
392.808	19.600
392.831	14.000
392.853	23.200
392.875	21.800
392.898	19.200
392.920	19.100
392.943	15.700
392.965	24.100
392.987	16.300
393.010	16.900
393.032	22.500
393.054	18.300
393.077	14.700
393.099	17.700
393.122	21.400
393.144	22.000
393.166	22.900
393.189	7.400
393.211	20.400
393.233	19.700
393.256	17.500
393.278	18.100
393.301	15.100
393.323	14.600
393.345	17.300
393.368	19.000
393.390	16.000
393.412	22.300
393.435	16.100
393.457	15.900
393.480	15.100
393.502	15.100
393.524	23.100
393.547	13.200
393.569	23.100
393.592	14.500
393.614	23.600
393.636	14.500
393.659	15.200
393.681	16.700
393.703	20.200
393.726	20.600
393.748	17.400
393.771	18.400
393.793	22.000
393.815	21.400
393.838	22.300
393.860	20.500
393.882	15.200
393.905	18.700
393.927	19.100
393.950	18.300
393.972	21.600
393.994	19.400
394.017	17.000
394.039	20.700
394.061	18.800
394.084	18.900
394.106	21.700
394.129	23.800
394.151	20.200
394.173	18.100
394.196	18.400
394.218	7.700
394.240	9.100
394.263	0.700
394.285	3.000
394.308	4.600
394.330	9.100
394.352	2.500
394.375	11.500
394.397	12.100
394.419	13.300
394.442	9.100
394.464	5.100
394.487	13.700
394.509	10.800
394.531	9.600
394.554	9.500
394.576	8.300
394.599	-4.300
394.621	4.800
394.643	14.700
394.666	7.100
394.688	11.200
394.710	-4.100
394.733	6.000
394.755	21.300
394.778	0.700
394.800	9.500
394.822	1.400
394.845	14.500
394.867	14.400
394.889	16.600
394.912	10.400
394.934	9.900
394.957	21.100
394.979	11.100
395.001	-5.700
395.024	10.300
395.046	19.400
395.068	15.800
395.091	7.100
395.113	6.900
395.136	-14.200
395.158	-6.600
395.180	-17.100
395.203	-9.500
395.225	-4.200
395.247	-0.300
395.270	-1.500
395.292	8.700
395.315	13.800
395.337	10.000
395.359	18.100
395.382	10.800
395.404	18.300
395.427	27.700
395.449	9.500
395.471	17.200
395.494	17.600
395.516	19.900
395.538	18.200
395.561	14.900
395.583	17.800
395.606	14.000
395.628	23.300
395.650	24.300
395.673	13.800
395.695	19.400
395.717	20.400
395.740	22.800
395.762	21.800
395.785	21.500
395.807	21.500
395.829	16.000
395.852	22.700
395.874	22.200
395.896	2.800
395.919	21.000
395.941	12.100
395.964	18.100
395.986	21.200
396.008	26.600
396.031	18.300
396.053	27.400
396.075	13.600
396.098	15.300
396.120	15.300
396.143	15.700
396.165	20.300
396.187	12.400
396.210	7.000
396.232	24.500
396.255	18.400
396.277	17.200
396.299	21.500
396.322	17.300
396.344	11.800
396.366	8.400
396.389	14.200
396.411	7.300
396.434	2.600
396.456	17.100
396.478	7.800
396.501	13.400
396.523	13.600
396.545	9.500
396.568	14.200
396.590	21.900
396.613	8.800
396.635	8.800
396.657	15.100
396.680	3.500
396.702	18.300
396.724	18.600
396.747	11.200
396.769	7.200
396.792	6.900
396.814	13.600
396.836	9.100
396.859	-0.200
396.881	8.000
396.903	13.200
396.926	4.500
396.948	13.000
396.971	10.000
396.993	0.500
397.015	9.400
397.038	5.200
397.060	-12.500
397.082	11.700
397.105	-2.300
397.127	4.900
397.150	20.800
397.172	-2.300
397.194	-7.900
397.217	-22.700
397.239	-26.800
397.262	-11.000
397.284	-26.200
397.306	-22.600
397.329	-95.300
397.351	-229.100
397.373	-334.700
397.396	-501.700
397.418	-654.000
397.441	-820.700
397.463	-914.300
397.485	-932.800
397.508	-936.100
397.530	-853.700
397.552	-609.900
397.575	-615.900
397.597	-548.500
397.620	-417.000
397.642	-281.900
397.664	-150.800
397.687	-177.500
397.709	-115.700
397.731	-143.200
397.754	-233.900
397.776	-324.700
397.799	-269.600
397.821	-269.200
397.843	-402.800
397.866	-589.200
397.888	-566.400
397.910	-519.300
397.933	-617.400
397.955	-7.100
397.978	0.000
398.000	0.000
398.022	0.000
398.045	0.000
398.067	0.000
398.090	-6551.000
398.112	-1920.300
398.134	-1136.000
398.157	-1307.500
398.179	-1115.100
398.201	-897.900
398.224	-918.500
398.246	-1576.100
398.269	-1460.400
398.291	-1191.900
398.313	-894.200
398.336	444.500
398.358	-407.600
398.380	-5911.500
398.403	-3082.100
398.425	-594.300
398.448	-302.000
398.470	-207.300
398.492	-197.500
398.515	-129.500
398.537	-126.700
398.559	-183.700
398.582	-163.300
398.604	-162.300
398.627	-139.300
398.649	-152.700
398.671	-133.900
398.694	-43.600
398.716	-23.000
398.738	-24.100
398.761	-27.600
398.783	-30.800
398.806	-15.000
398.828	-17.400
398.850	-24.500
398.873	-28.700
398.895	-13.400
398.918	-21.900
398.940	-20.000
398.962	-6.000
398.985	-15.200
399.007	-20.800
399.029	0.000
399.052	-23.300
399.074	-18.500
399.097	-19.800
399.119	-16.000
399.141	-21.100
399.164	-7.100
399.186	-9.200
399.208	-14.400
399.231	-18.100
399.253	-17.500
399.276	-14.100
399.298	-17.900
399.320	-20.300
399.343	-10.400
399.365	-8.200
399.387	-8.600
399.410	-10.500
399.432	-11.000
399.455	-9.300
399.477	-8.100
399.499	-7.200
399.522	-12.400
399.544	-11.100
399.566	-2.900
399.589	-6.800
399.611	-2.900
399.634	-8.100
399.656	-14.500
399.678	-4.700
399.701	-2.100
399.723	-7.000
399.745	-10.600
399.768	-13.800
399.790	-3.800
399.813	-8.800
399.835	-5.100
399.857	-5.100
399.880	-7.500
399.902	-6.100
399.925	-0.500
399.947	-3.600
399.969	-11.600
399.992	-11.100
400.014	-4.000
400.036	1.800
400.059	-4.300
400.081	-12.300
400.104	-9.800
400.126	-1.700
400.148	-6.200
400.171	-2.000
400.193	-5.400
400.215	0.000
400.238	-3.000
400.260	-1.600
400.283	-3.600
400.305	1.800
400.327	-5.000
400.350	0.500
400.372	3.600
400.394	-4.200
400.417	8.500
400.439	0.000
400.462	3.800
400.484	0.000
400.506	7.700
400.529	3.900
400.551	3.400
400.573	12.100
400.596	3.100
400.618	8.400
400.641	2.600
400.663	10.300
400.685	10.800
400.708	8.100
400.730	-1.700
400.753	-3.000
400.775	2.100
400.797	5.300
400.820	-10.700
400.842	-4.700
400.864	-7.800
400.887	-3.800
400.909	22.700
400.932	29.600
400.954	30.200
400.976	23.500
400.999	22.500
401.021	35.400
401.043	55.100
401.066	57.900
401.088	51.900
401.111	38.500
401.133	50.300
401.155	59.900
401.178	69.200
401.200	47.800
401.222	61.000
401.245	46.700
401.267	49.300
401.290	71.900
401.312	72.300
401.334	69.600
401.357	36.600
401.379	32.900
401.401	74.100
401.424	119.200
401.446	158.400
401.469	271.800
401.491	574.400
401.513	814.800
401.536	1290.000
401.558	2450.100
401.581	2202.100
401.603	1385.000
401.625	1779.600
401.648	1674.100
401.670	921.400
401.692	986.800
401.715	1108.300
401.737	589.300
401.760	267.200
401.782	163.900
401.804	33.600
401.827	-3.500
401.849	3.600
401.871	-6.900
401.894	-1.800
401.916	3.300
401.939	3.700
401.961	1.100
401.983	1.700
402.006	2.400
402.028	4.100
402.050	7.200
402.073	2.400
402.095	5.600
402.118	4.700
402.140	3.700
402.162	2.900
402.185	4.200
402.207	6.400
402.229	1.600
402.252	7.400
402.274	-2.000
402.297	-0.200
402.319	0.400
402.341	2.000
402.364	0.100
402.386	2.800
402.408	2.900
402.431	2.100
402.453	-3.300
402.476	-4.000
402.498	1.200
402.520	-3.200
402.543	0.600
402.565	0.700
402.588	-1.700
402.610	-2.800
402.632	-3.200
402.655	0.400
402.677	0.800
402.699	-2.100
402.722	-0.200
402.744	0.800
402.767	-3.800
402.789	-4.900
402.811	1.500
402.834	0.600
402.856	1.900
402.878	0.800
402.901	0.000
402.923	-1.600
402.946	-1.100
402.968	-3.500
402.990	-2.100
403.013	1.900
403.035	0.200
403.057	-0.500
403.080	-0.700
403.102	-1.800
403.125	2.200
403.147	-2.000
403.169	-1.000
403.192	1.700
403.214	-1.600
403.236	-1.500
403.259	-1.800
403.281	-1.000
403.304	0.100
403.326	2.700
403.348	-1.500
403.371	1.000
403.393	-1.300
403.415	-1.600
403.438	-1.200
403.460	0.000
403.483	0.000
403.505	1.000
403.527	2.300
403.550	-1.500
403.572	-2.500
403.595	0.700
403.617	-0.900
403.639	-1.200
403.662	-3.700
403.684	-2.500
403.706	-1.600
403.729	1.200
403.751	-1.200
403.774	-2.700
403.796	2.600
403.818	0.600
403.841	-1.900
403.863	0.200
403.885	-0.500
403.908	2.000
403.930	-1.300
403.953	-0.900
403.975	-0.300
403.997	1.000
404.020	0.500
404.042	0.300
404.064	1.700
404.087	3.000
404.109	-2.500
404.132	0.100
404.154	-0.300
404.176	0.200
404.199	1.300
404.221	1.400
404.243	-0.500
404.266	0.000
404.288	-2.100
404.311	1.300
404.333	-0.800
404.355	4.300
404.378	-1.500
404.400	1.200
404.423	0.000
404.445	0.300
404.467	1.900
404.490	-1.900
404.512	-0.400
404.534	3.200
404.557	1.200
404.579	1.900
404.602	1.600
404.624	-0.500
404.646	-0.900
404.669	3.100
404.691	3.100
404.713	2.900
404.736	0.700
404.758	2.100
404.781	-2.200
404.803	0.000
404.825	0.000
404.848	-2.700
404.870	-3.000
404.892	4.400
404.915	-2.600
404.937	-0.800
404.960	2.600
404.982	0.000
405.004	3.400
405.027	4.900
405.049	-0.600
405.072	2.700
405.094	0.600
405.116	-1.100
405.139	2.900
405.161	-1.300
405.183	-0.300
405.206	0.200
405.228	1.600
405.251	3.900
405.273	4.400
405.295	0.400
405.318	0.300
405.340	0.100
405.362	-0.200
405.385	0.800
405.407	1.000
405.430	0.700
405.452	-0.400
405.474	-0.300
405.497	-1.200
405.519	5.100
405.541	-1.400
405.564	1.400
405.586	-1.000
405.609	-5.600
405.631	-4.000
405.653	-0.200
405.676	0.100
405.698	-0.200
405.720	1.500
405.743	-1.600
405.765	-1.400
405.788	1.600
405.810	-1.500
405.832	-1.300
405.855	0.200
405.877	0.300
405.899	2.000
405.922	0.100
405.944	2.000
405.967	0.000
405.989	-0.100
406.011	1.100
406.034	-0.700
406.056	-0.600
406.078	-1.400
406.101	-0.200
406.123	2.000
406.146	-1.900
406.168	0.700
406.190	-0.600
406.213	-2.600
406.235	-0.400
406.258	-0.700
406.280	-0.100
406.302	-0.600
406.325	-1.500
406.347	-3.900
406.369	0.700
406.392	-1.900
406.414	-1.100
406.437	1.000
406.459	1.900
406.481	-0.800
406.504	-0.600
406.526	0.100
406.548	2.400
406.571	-2.500
406.593	1.700
406.616	-1.400
406.638	0.700
406.660	-0.100
406.683	-0.300
406.705	0.000
406.727	0.300
406.750	0.900
406.772	2.100
406.795	-0.200
406.817	2.200
406.839	1.700
406.862	-0.400
406.884	-0.500
406.906	-2.400
406.929	0.400
406.951	-0.800
406.974	1.700
406.996	0.400
407.018	0.700
407.041	1.500
407.063	-1.100
407.086	-0.700
407.108	-1.800
407.130	0.900
407.153	0.300
407.175	-2.100
407.197	-1.100
407.220	1.900
407.242	0.400
407.265	1.200
407.287	-0.800
407.309	-0.600
407.332	-0.200
407.354	-0.900
407.376	-1.700
407.399	-0.400
407.421	-0.700
407.444	0.200
407.466	-0.300
407.488	1.200
407.511	2.700
407.533	-0.900
407.555	0.400
407.578	1.600
407.600	3.000
407.623	-1.800
407.645	0.200
407.667	0.100
407.690	-1.000
407.712	-1.100
407.734	-1.500
407.757	2.500
407.779	-1.100
407.802	-0.400
407.824	-1.700
407.846	-0.800
407.869	0.700
407.891	-1.900
407.914	0.900
407.936	-1.200
407.958	-1.600
407.981	1.100
408.003	-0.600
408.025	-0.600
408.048	0.800
408.070	0.600
408.093	1.800
408.115	2.100
408.137	1.500
408.160	1.100
408.182	1.300
408.204	1.800
408.227	-2.200
408.249	1.400
408.272	0.100
408.294	0.400
408.316	-1.000
408.339	-0.700
408.361	0.400
408.383	1.600
408.406	2.200
408.428	0.600
408.451	0.800
408.473	-0.200
408.495	-2.200
408.518	-1.800
408.540	1.600
408.562	-0.400
408.585	0.500
408.607	0.400
408.630	-0.100
408.652	-1.500
408.674	-1.600
408.697	-1.400
408.719	1.000
408.741	2.500
408.764	-0.200
408.786	-2.300
408.809	-0.500
408.831	-1.800
408.853	1.000
408.876	-2.700
408.898	-2.300
408.921	-0.600
408.943	-0.900
408.965	0.400
408.988	-0.900
409.010	-0.800
409.032	-0.600
409.055	3.100
409.077	0.300
409.100	-1.500
409.122	1.600
409.144	0.300
409.167	-0.300
409.189	-1.300
409.211	-1.800
409.234	0.000
409.256	1.200
409.279	-3.000
409.301	1.100
409.323	-0.100
409.346	2.600
409.368	-0.100
409.390	-0.700
409.413	0.800
409.435	-0.400
