386.542	0.300
386.565	-3.800
386.587	-0.200
386.610	-2.800
386.632	-1.100
386.654	-3.400
386.677	-3.600
386.699	0.000
386.721	-1.600
386.744	-1.000
386.766	-0.700
386.789	-1.000
386.811	-1.000
386.833	-2.000
386.856	-0.500
386.878	-0.800
386.900	-1.500
386.923	-2.800
386.945	-0.200
386.968	-3.000
386.990	-3.500
387.012	-3.100
387.035	-1.900
387.057	-1.700
387.079	0.200
387.102	-1.900
387.124	-4.700
387.147	-1.900
387.169	-2.400
387.191	-1.400
387.214	-2.000
387.236	1.600
387.259	-1.500
387.281	-1.400
387.303	-4.500
387.326	-2.500
387.348	-0.900
387.370	-2.000
387.393	-0.600
387.415	-1.300
387.438	0.300
387.460	-0.100
387.482	-0.500
387.505	0.000
387.527	-2.100
387.549	-2.300
387.572	-1.200
387.594	-1.800
387.617	-2.300
387.639	0.100
387.661	-0.800
387.684	-2.000
387.706	-1.300
387.728	-0.600
387.751	-3.700
387.773	1.200
387.796	-3.100
387.818	-1.000
387.840	-0.900
387.863	-1.900
387.885	-1.800
387.907	-1.900
387.930	-0.700
387.952	0.700
387.975	-2.500
387.997	-1.500
388.019	-1.000
388.042	-3.400
388.064	0.400
388.086	-1.600
388.109	-0.300
388.131	-4.000
388.154	-1.200
388.176	-0.800
388.198	-3.000
388.221	-3.800
388.243	0.000
388.266	-0.500
388.288	-2.600
388.310	1.000
388.333	-2.800
388.355	-1.800
388.377	-0.500
388.400	-0.800
388.422	-0.700
388.445	-1.400
388.467	-1.600
388.489	0.400
388.512	-2.400
388.534	-0.900
388.556	-1.300
388.579	-3.900
388.601	-1.100
388.624	-3.300
388.646	0.400
388.668	-3.100
388.691	0.900
388.713	-3.400
388.735	0.100
388.758	0.600
388.780	-2.100
388.803	2.800
388.825	1.900
388.847	-3.200
388.870	-4.100
388.892	-0.500
388.914	1.100
388.937	1.000
388.959	-1.400
388.982	-0.800
389.004	-2.900
389.026	-2.100
389.049	-3.500
389.071	-0.400
389.094	-1.300
389.116	-5.100
389.138	-1.300
389.161	-1.000
389.183	-2.000
389.205	0.000
389.228	-3.100
389.250	1.100
389.273	1.700
389.295	-1.100
389.317	-1.300
389.340	1.400
389.362	-1.200
389.384	0.600
389.407	-0.100
389.429	-2.200
389.452	-0.300
389.474	-2.700
389.496	-3.500
389.519	-1.500
389.541	-1.000
389.563	0.400
389.586	-3.400
389.608	-1.000
389.631	-2.000
389.653	-1.000
389.675	-3.500
389.698	-0.100
389.720	-0.400
389.742	-1.000
389.765	3.000
389.787	-2.000
389.810	-2.100
389.832	-0.700
389.854	-2.500
389.877	0.100
389.899	-0.100
389.922	-3.000
389.944	-1.500
389.966	0.200
389.989	1.400
390.011	-0.900
390.033	1.100
390.056	-2.900
390.078	-3.500
390.101	-0.500
390.123	-2.900
390.145	1.700
390.168	1.200
390.190	1.800
390.212	1.400
390.235	2.700
390.257	-1.600
390.280	3.400
390.302	-0.400
390.324	1.900
390.347	-1.100
390.369	0.900
390.391	3.400
390.414	1.400
390.436	2.700
390.459	-0.100
390.481	3.100
390.503	4.700
390.526	2.600
390.548	0.900
390.570	0.300
390.593	0.000
390.615	-2.800
390.638	2.400
390.660	0.700
390.682	3.000
390.705	0.000
390.727	0.300
390.749	2.800
390.772	4.600
390.794	1.100
390.817	0.900
390.839	-1.000
390.861	2.400
390.884	2.100
390.906	-2.800
390.928	4.600
390.951	1.100
390.973	2.300
390.996	0.000
391.018	1.300
391.040	2.300
391.063	0.700
391.085	-0.400
391.108	-0.300
391.130	1.300
391.152	0.000
391.175	1.400
391.197	2.900
391.219	-0.100
391.242	2.100
391.264	0.800
391.287	3.500
391.309	-6.900
391.331	-1.400
391.354	-0.800
391.376	-0.100
391.398	-2.800
391.421	-1.500
391.443	-2.400
391.466	-0.800
391.488	2.000
391.510	-2.600
391.533	-5.400
391.555	-2.200
391.577	-3.500
391.600	0.200
391.622	-3.200
391.645	-1.500
391.667	-2.600
391.689	-1.800
391.712	-1.400
391.734	-1.200
391.757	-5.700
391.779	-0.800
391.801	-5.100
391.824	-6.100
391.846	-2.300
391.868	-4.100
391.891	-3.400
391.913	-6.900
391.936	-3.100
391.958	-6.300
391.980	-6.200
392.003	-5.500
392.025	-4.200
392.047	-5.400
392.070	-9.100
392.092	-11.200
392.115	-8.400
392.137	-8.500
392.159	-7.300
392.182	-3.900
392.204	-5.700
392.226	-11.700
392.249	-4.000
392.271	-9.600
392.294	-9.500
392.316	-10.200
392.338	-5.900
392.361	-11.100
392.383	-9.900
392.405	-11.800
392.428	-12.400
392.450	-12.800
392.473	-12.400
392.495	-11.300
392.517	-6.300
392.540	-14.900
392.562	-15.100
392.585	-9.600
392.607	-16.300
392.629	-14.000
392.652	-11.300
392.674	-12.700
392.696	-19.500
392.719	-13.700
392.741	-17.400
392.764	-15.200
392.786	-11.800
392.808	-14.900
392.831	-21.300
392.853	-13.100
392.875	-13.500
392.898	-13.200
392.920	-19.400
392.943	-18.500
392.965	-14.100
392.987	-21.600
393.010	-17.500
393.032	-11.300
393.054	-18.400
393.077	-22.200
393.099	-17.700
393.122	-15.900
393.144	-12.900
393.166	-12.700
393.189	-30.300
393.211	-17.100
393.233	-18.800
393.256	-19.000
393.278	-19.800
393.301	-20.300
393.323	-20.900
393.345	-21.200
393.368	-13.300
393.390	-22.100
393.412	-14.300
393.435	-22.900
393.457	-18.300
393.480	-21.500
393.502	-20.100
393.524	-13.400
393.547	-19.400
393.569	-17.900
393.592	-20.300
393.614	-14.600
393.636	-22.200
393.659	-26.500
393.681	-16.600
393.703	-14.100
393.726	-18.500
393.748	-19.100
393.771	-17.400
393.793	-16.300
393.815	-13.000
393.838	-16.900
393.860	-14.500
393.882	-18.800
393.905	-17.300
393.927	-14.900
393.950	-19.100
393.972	-20.900
393.994	-11.700
394.017	-13.800
394.039	-15.900
394.061	-15.300
394.084	-16.100
394.106	-17.400
394.129	-11.000
394.151	-20.100
394.173	-18.200
394.196	-19.500
394.218	-33.000
394.240	-34.800
394.263	-38.800
394.285	-40.700
394.308	-40.200
394.330	-29.200
394.352	-41.300
394.375	-37.000
394.397	-25.800
394.419	-25.700
394.442	-30.000
394.464	-39.300
394.487	-29.600
394.509	-34.200
394.531	-37.200
394.554	-39.300
394.576	-37.800
394.599	-48.400
394.621	-41.000
394.643	-38.300
394.666	-39.200
394.688	-37.500
394.710	-47.200
394.733	-45.600
394.755	-26.400
394.778	-45.000
394.800	-41.100
394.822	-51.100
394.845	-28.500
394.867	-34.500
394.889	-32.300
394.912	-41.800
394.934	-41.900
394.957	-20.900
394.979	-41.100
395.001	-44.700
395.024	-27.100
395.046	-25.500
395.068	-28.700
395.091	-41.200
395.113	-38.800
395.136	-60.600
395.158	-62.200
395.180	-64.600
395.203	-59.800
395.225	-56.600
395.247	-48.700
395.270	-44.100
395.292	-34.500
395.315	-27.700
395.337	-29.900
395.359	-19.700
395.382	-25.500
395.404	-15.800
395.427	-10.700
395.449	-19.300
395.471	-18.200
395.494	-16.900
395.516	-10.000
395.538	-15.100
395.561	-17.800
395.583	-14.700
395.606	-15.200
395.628	-11.000
395.650	-6.200
395.673	-17.100
395.695	-14.700
395.717	-7.900
395.740	-7.200
395.762	-11.100
395.785	-7.300
395.807	-8.400
395.829	-17.500
395.852	-14.100
395.874	-7.000
395.896	-31.000
395.919	-13.100
395.941	-18.300
395.964	-15.600
395.986	-11.100
396.008	-5.700
396.031	-15.000
396.053	-5.700
396.075	-18.400
396.098	-15.600
396.120	-19.500
396.143	-12.000
396.165	-8.500
396.187	-19.600
396.210	-21.600
396.232	-10.600
396.255	-14.300
396.277	-16.800
396.299	-13.600
396.322	-16.000
396.344	-20.700
396.366	-22.600
396.389	-17.000
396.411	-24.000
396.434	-23.900
396.456	-17.900
396.478	-21.300
396.501	-20.300
396.523	-21.200
396.545	-21.500
396.568	-15.000
396.590	-14.500
396.613	-20.100
396.635	-21.000
396.657	-18.700
396.680	-24.200
396.702	-15.100
396.724	-13.800
396.747	-19.700
396.769	-22.600
396.792	-25.600
396.814	-18.200
396.836	-22.800
396.859	-32.900
396.881	-25.400
396.903	-17.600
396.926	-26.600
396.948	-20.400
396.971	-23.900
396.993	-37.200
397.015	-24.600
397.038	-34.600
397.060	-44.200
397.082	-28.100
397.105	-37.000
397.127	-31.700
397.150	-16.700
397.172	-42.200
397.194	-49.800
397.217	-70.700
397.239	-63.200
397.262	-51.500
397.284	-75.100
397.306	-89.100
397.329	-199.900
397.351	-366.000
397.373	-525.800
397.396	-712.900
397.418	-890.200
397.441	-1134.300
397.463	-1256.200
397.485	-1260.100
397.508	-1259.800
397.530	-1194.600
397.552	-948.700
397.575	-1054.600
397.597	-932.300
397.620	-714.300
397.642	-614.800
397.664	-465.100
397.687	-403.500
397.709	-173.700
397.731	-131.900
397.754	-250.200
397.776	-284.000
397.799	-239.300
397.821	-211.400
397.843	-330.900
397.866	-430.000
397.888	-333.600
397.910	-220.200
397.933	797.100
397.955	-15.000
397.978	0.000
398.000	0.000
398.022	0.000
398.045	0.000
398.067	0.000
398.090	-7411.800
398.112	-2000.200
398.134	-1194.600
398.157	-1317.500
398.179	-981.000
398.201	-765.700
398.224	-828.200
398.246	-1416.000
398.269	-409.000
398.291	-1468.500
398.313	-1130.500
398.336	493.400
398.358	-148.100
398.380	-4981.200
398.403	-3167.200
398.425	-655.400
398.448	-327.300
398.470	-203.400
398.492	-209.300
398.515	-146.400
398.537	-153.000
398.559	-213.100
398.582	-185.600
398.604	-188.900
398.627	-164.600
398.649	-188.200
398.671	-180.100
398.694	-69.700
398.716	-46.500
398.738	-49.000
398.761	-56.500
398.783	-51.900
398.806	-40.300
398.828	-40.600
398.850	-52.800
398.873	-50.900
398.895	-30.000
398.918	-43.900
398.940	-35.700
398.962	-23.700
398.985	-31.000
399.007	-32.200
399.029	-17.600
399.052	-42.700
399.074	-29.700
399.097	-32.800
399.119	-27.900
399.141	-29.700
399.164	-26.400
399.186	-21.300
399.208	-25.200
399.231	-30.500
399.253	-29.400
399.276	-28.900
399.298	-27.800
399.320	-27.800
399.343	-20.300
399.365	-18.300
399.387	-18.400
399.410	-24.500
399.432	-22.000
399.455	-20.800
399.477	-14.900
399.499	-11.600
399.522	-22.300
399.544	-21.300
399.566	-11.300
399.589	-15.200
399.611	-8.600
399.634	-18.700
399.656	-20.800
399.678	-11.500
399.701	-11.900
399.723	-17.700
399.745	-16.000
399.768	-18.800
399.790	-12.000
399.813	-18.400
399.835	-15.200
399.857	-11.800
399.880	-12.600
399.902	-9.500
399.925	-7.600
399.947	-11.400
399.969	-17.300
399.992	-14.500
400.014	-8.100
400.036	-3.200
400.059	-8.600
400.081	-14.800
400.104	-13.100
400.126	-4.600
400.148	-10.000
400.171	-6.800
400.193	-10.600
400.215	-6.000
400.238	-6.300
400.260	-6.800
400.283	-6.800
400.305	-1.800
400.327	-8.500
400.350	-3.700
400.372	0.800
400.394	-4.700
400.417	4.000
400.439	-1.400
400.462	4.300
400.484	-2.400
400.506	6.400
400.529	3.000
400.551	3.500
400.573	11.800
400.596	-0.100
400.618	7.000
400.641	3.200
400.663	11.400
400.685	5.700
400.708	4.200
400.730	-8.300
400.753	-9.500
400.775	-2.900
400.797	1.600
400.820	-14.900
400.842	-15.600
400.864	-18.700
400.887	-10.900
400.909	24.300
400.932	36.700
400.954	41.300
400.976	40.100
400.999	39.600
401.021	58.300
401.043	66.400
401.066	60.600
401.088	61.800
401.111	46.800
401.133	68.200
401.155	72.100
401.178	64.700
401.200	47.300
401.222	56.500
401.245	36.400
401.267	35.100
401.290	54.700
401.312	44.100
401.334	33.300
401.357	-3.500
401.379	-5.000
401.401	21.300
401.424	31.500
401.446	33.000
401.469	18.400
401.491	23.500
401.513	57.700
401.536	33.300
401.558	41.900
401.581	56.700
401.603	34.400
401.625	31.000
401.648	61.500
401.670	101.200
401.692	95.900
401.715	135.100
401.737	272.100
401.760	360.900
401.782	258.900
401.804	302.700
401.827	430.100
401.849	326.500
401.871	354.100
401.894	306.800
401.916	145.800
401.939	45.500
401.961	9.700
401.983	-0.700
402.006	0.700
402.028	0.700
402.050	2.300
402.073	-1.400
402.095	3.100
402.118	-0.900
402.140	0.400
402.162	-0.700
402.185	0.100
402.207	0.800
402.229	-4.700
402.252	-0.800
402.274	-5.800
402.297	-3.700
402.319	-1.200
402.341	-0.800
402.364	-1.500
402.386	0.500
402.408	0.300
402.431	0.300
402.453	-4.800
402.476	-6.400
402.498	-1.200
402.520	-3.600
402.543	0.600
402.565	0.000
402.588	-2.200
402.610	-4.500
402.632	-3.500
402.655	-2.600
402.677	0.000
402.699	-4.200
402.722	-1.400
402.744	-1.000
402.767	-6.100
402.789	-5.800
402.811	-0.900
402.834	-1.200
402.856	1.200
402.878	-0.600
402.901	-2.200
402.923	-3.900
402.946	-0.100
402.968	-3.400
402.990	-2.600
403.013	2.200
403.035	0.000
403.057	0.900
403.080	-1.400
403.102	-1.700
403.125	1.500
403.147	-2.500
403.169	-1.700
403.192	0.200
403.214	-1.900
403.236	-1.000
403.259	-1.100
403.281	0.400
403.304	0.400
403.326	3.500
403.348	-0.300
403.371	1.000
403.393	-0.900
403.415	-2.300
403.438	-0.700
403.460	0.700
403.483	1.600
403.505	2.200
403.527	4.500
403.550	0.600
403.572	-0.300
403.595	3.400
403.617	2.000
403.639	1.900
403.662	-1.600
403.684	1.500
403.706	1.700
403.729	3.000
403.751	0.400
403.774	-1.900
403.796	3.000
403.818	0.600
403.841	-3.400
403.863	-1.100
403.885	-0.300
403.908	1.600
403.930	-2.100
403.953	-0.800
403.975	-1.300
403.997	0.300
404.020	-0.200
404.042	-1.500
404.064	0.400
404.087	1.600
404.109	-2.700
404.132	-0.100
404.154	-1.200
404.176	-0.700
404.199	0.200
404.221	0.000
404.243	-1.300
404.266	-1.100
404.288	-2.100
404.311	-0.100
404.333	-1.500
404.355	3.900
404.378	-2.200
404.400	0.200
404.423	-2.000
404.445	-1.400
404.467	1.100
404.490	-3.000
404.512	-1.200
404.534	1.000
404.557	-0.500
404.579	0.300
404.602	-0.500
404.624	-1.600
404.646	-3.000
404.669	0.000
404.691	1.800
404.713	2.600
404.736	-0.600
404.758	2.300
404.781	-2.600
404.803	-0.400
404.825	-3.500
404.848	-5.300
404.870	-4.900
404.892	3.400
404.915	-3.600
404.937	-2.300
404.960	1.200
404.982	-0.800
405.004	1.100
405.027	3.000
405.049	-2.800
405.072	0.600
405.094	0.200
405.116	-1.100
405.139	3.300
405.161	-0.500
405.183	0.000
405.206	-1.900
405.228	0.900
405.251	3.600
405.273	2.400
405.295	0.100
405.318	-0.700
405.340	-1.000
405.362	-0.900
405.385	0.500
405.407	0.800
405.430	0.200
405.452	-1.900
405.474	-3.000
405.497	-0.500
405.519	4.700
405.541	-2.300
405.564	2.100
405.586	-1.900
405.609	-4.800
405.631	-3.900
405.653	-0.500
405.676	0.400
405.698	-0.400
405.720	0.800
405.743	-1.400
405.765	-2.500
405.788	0.800
405.810	-2.800
405.832	-1.300
405.855	-0.600
405.877	0.200
405.899	1.500
405.922	-0.500
405.944	1.200
405.967	0.300
405.989	-1.000
406.011	0.000
406.034	-1.200
406.056	0.300
406.078	-1.500
406.101	0.000
406.123	1.500
406.146	-2.100
406.168	0.000
406.190	-1.000
406.213	-3.200
406.235	-0.400
406.258	-1.700
406.280	0.700
406.302	-0.900
406.325	-1.400
406.347	-3.400
406.369	0.700
406.392	-2.000
406.414	-1.100
406.437	1.100
406.459	1.800
406.481	-0.900
406.504	-0.800
406.526	0.500
406.548	1.200
406.571	-3.000
406.593	2.000
406.616	-1.000
406.638	0.200
406.660	-1.700
406.683	-0.900
406.705	-0.800
406.727	0.700
406.750	-0.500
406.772	1.800
406.795	-0.200
406.817	2.100
406.839	1.700
406.862	-1.400
406.884	-2.000
406.906	-3.500
406.929	0.400
406.951	-2.300
406.974	1.300
406.996	1.000
407.018	0.100
407.041	1.400
407.063	-2.000
407.086	-0.900
407.108	-1.700
407.130	-0.500
407.153	-0.100
407.175	-1.700
407.197	-0.500
407.220	2.700
407.242	0.400
407.265	0.800
407.287	-1.800
407.309	-0.600
407.332	0.500
407.354	-1.200
407.376	-1.200
407.399	-1.000
407.421	-0.300
407.444	-0.400
407.466	-1.500
407.488	1.600
407.511	2.500
407.533	-2.000
407.555	0.400
407.578	1.100
407.600	2.400
407.623	-2.500
407.645	-0.300
407.667	-0.700
407.690	-0.900
407.712	-1.500
407.734	-2.600
407.757	1.500
407.779	-1.200
407.802	0.000
407.824	-2.300
407.846	-1.700
407.869	0.700
407.891	-1.700
407.914	0.500
407.936	-1.600
407.958	-1.200
407.981	0.500
408.003	-1.000
408.025	-1.000
408.048	0.500
408.070	0.500
408.093	1.600
408.115	1.800
408.137	1.200
408.160	0.100
408.182	0.800
408.204	2.000
408.227	-2.500
408.249	0.700
408.272	-0.900
408.294	-0.900
408.316	-1.100
408.339	-0.700
408.361	-0.400
408.383	0.500
408.406	1.300
408.428	1.000
408.451	1.100
408.473	-0.900
408.495	-2.500
408.518	-2.400
408.540	0.500
408.562	-1.300
408.585	0.000
408.607	-0.500
408.630	-0.400
408.652	-1.300
408.674	-2.300
408.697	-1.300
408.719	0.600
408.741	1.500
408.764	-0.200
408.786	-2.600
408.809	-1.100
408.831	-2.100
408.853	0.700
408.876	-2.400
408.898	-2.900
408.921	0.000
408.943	-0.700
408.965	0.600
408.988	-0.500
409.010	-2.300
409.032	-0.400
409.055	2.200
409.077	0.300
409.100	-2.100
409.122	1.400
409.144	-0.400
409.167	-0.600
409.189	-1.500
409.211	-1.800
409.234	-1.300
409.256	0.500
409.279	-2.900
409.301	1.000
409.323	-0.100
409.346	1.900
409.368	-0.300
409.390	-0.900
409.413	-0.800
409.435	-0.500
