386.542	1.000
386.565	-2.300
386.587	0.000
386.610	-1.000
386.632	0.100
386.654	-3.900
386.677	-3.000
386.699	0.100
386.721	-0.200
386.744	-0.700
386.766	1.100
386.789	0.000
386.811	0.300
386.833	-0.500
386.856	-0.100
386.878	-0.600
386.900	-0.400
386.923	-1.000
386.945	-0.300
386.968	-3.600
386.990	-3.400
387.012	-2.200
387.035	-1.600
387.057	-0.600
387.079	1.800
387.102	-0.800
387.124	-3.400
387.147	-1.400
387.169	-1.300
387.191	-0.400
387.214	-1.400
387.236	2.400
387.259	-0.300
387.281	-0.600
387.303	-4.100
387.326	-2.700
387.348	0.500
387.370	-1.400
387.393	0.600
387.415	0.400
387.438	1.000
387.460	0.300
387.482	0.300
387.505	1.400
387.527	-0.800
387.549	-2.900
387.572	-0.600
387.594	-0.900
387.617	-3.000
387.639	0.100
387.661	-0.400
387.684	-0.400
387.706	-0.200
387.728	0.600
387.751	-2.500
387.773	1.800
387.796	-2.900
387.818	-0.800
387.840	0.200
387.863	-0.200
387.885	-0.800
387.907	-1.000
387.930	0.900
387.952	2.400
387.975	-1.700
387.997	-0.400
388.019	0.100
388.042	-1.200
388.064	1.500
388.086	-0.500
388.109	0.700
388.131	-2.200
388.154	-0.100
388.176	0.700
388.198	-1.300
388.221	-2.900
388.243	1.500
388.266	1.600
388.288	-0.900
388.310	2.200
388.333	-0.700
388.355	-0.500
388.377	1.100
388.400	-0.500
388.422	-0.400
388.445	0.300
388.467	-0.700
388.489	2.300
388.512	-1.000
388.534	1.300
388.556	0.600
388.579	-1.800
388.601	-0.100
388.624	-2.100
388.646	2.200
388.668	-1.600
388.691	2.700
388.713	-2.100
388.735	2.600
388.758	2.800
388.780	-0.600
388.803	4.700
388.825	4.000
388.847	-1.400
388.870	-0.200
388.892	0.800
388.914	3.800
388.937	2.900
388.959	1.700
388.982	1.500
389.004	-2.300
389.026	0.300
389.049	-1.000
389.071	1.800
389.094	1.100
389.116	-2.100
389.138	0.700
389.161	1.100
389.183	0.000
389.205	1.200
389.228	0.500
389.250	3.400
389.273	3.800
389.295	1.200
389.317	1.000
389.340	3.400
389.362	2.700
389.384	4.300
389.407	4.000
389.429	1.100
389.452	2.500
389.474	1.200
389.496	0.700
389.519	1.800
389.541	3.900
389.563	3.800
389.586	0.700
389.608	4.500
389.631	2.800
389.653	3.700
389.675	1.300
389.698	4.500
389.720	5.100
389.742	3.000
389.765	6.300
389.787	3.200
389.810	2.500
389.832	5.000
389.854	3.200
389.877	5.300
389.899	5.500
389.922	3.000
389.944	3.600
389.966	6.500
389.989	6.700
390.011	4.700
390.033	7.000
390.056	4.600
390.078	4.200
390.101	5.200
390.123	4.100
390.145	7.400
390.168	8.900
390.190	7.300
390.212	6.900
390.235	11.300
390.257	5.200
390.280	10.400
390.302	7.700
390.324	9.800
390.347	7.500
390.369	9.300
390.391	13.400
390.414	8.400
390.436	8.900
390.459	8.200
390.481	14.500
390.503	12.700
390.526	10.500
390.548	10.800
390.570	9.900
390.593	9.200
390.615	6.200
390.638	12.300
390.660	8.800
390.682	12.500
390.705	10.300
390.727	11.700
390.749	13.800
390.772	15.400
390.794	12.000
390.817	12.500
390.839	11.100
390.861	16.400
390.884	11.500
390.906	10.000
390.928	18.500
390.951	12.200
390.973	16.300
390.996	12.300
391.018	15.600
391.040	15.500
391.063	13.100
391.085	14.800
391.108	13.300
391.130	15.300
391.152	14.200
391.175	14.400
391.197	17.400
391.219	14.100
391.242	14.000
391.264	15.700
391.287	18.900
391.309	8.500
391.331	15.200
391.354	17.100
391.376	14.900
391.398	13.200
391.421	15.600
391.443	14.500
391.466	16.600
391.488	19.600
391.510	13.900
391.533	11.500
391.555	15.300
391.577	14.700
391.600	16.100
391.622	14.600
391.645	17.200
391.667	16.100
391.689	15.100
391.712	15.900
391.734	16.600
391.757	16.200
391.779	13.900
391.801	13.700
391.824	11.900
391.846	17.900
391.868	17.800
391.891	14.800
391.913	13.100
391.936	13.700
391.958	16.500
391.980	11.800
392.003	17.100
392.025	15.600
392.047	13.500
392.070	11.000
392.092	10.500
392.115	11.800
392.137	11.400
392.159	14.700
392.182	19.300
392.204	16.000
392.226	14.900
392.249	15.000
392.271	14.400
392.294	14.600
392.316	11.200
392.338	17.700
392.361	13.500
392.383	12.100
392.405	10.300
392.428	9.100
392.450	11.400
392.473	11.400
392.495	11.500
392.517	18.000
392.540	11.200
392.562	11.800
392.585	14.500
392.607	8.800
392.629	11.600
392.652	14.300
392.674	12.000
392.696	11.900
392.719	7.200
392.741	9.500
392.764	9.500
392.786	13.600
392.808	9.800
392.831	5.700
392.853	14.500
392.875	13.600
392.898	10.400
392.920	9.900
392.943	7.100
392.965	13.800
392.987	5.400
393.010	10.100
393.032	14.300
393.054	11.000
393.077	5.700
393.099	10.900
393.122	12.300
393.144	14.200
393.166	14.600
393.189	-1.300
393.211	8.600
393.233	10.800
393.256	7.600
393.278	7.900
393.301	6.100
393.323	6.400
393.345	6.100
393.368	10.500
393.390	6.800
393.412	13.800
393.435	7.700
393.457	7.000
393.480	7.200
393.502	6.300
393.524	11.700
393.547	5.400
393.569	13.500
393.592	6.600
393.614	14.200
393.636	5.100
393.659	4.400
393.681	7.500
393.703	11.600
393.726	9.500
393.748	6.800
393.771	9.100
393.793	12.600
393.815	13.600
393.838	12.800
393.860	12.200
393.882	6.200
393.905	7.600
393.927	8.300
393.950	5.000
393.972	8.900
393.994	9.000
394.017	6.800
394.039	8.800
394.061	6.800
394.084	7.900
394.106	7.300
394.129	11.700
394.151	6.300
394.173	7.100
394.196	6.200
394.218	-5.400
394.240	-3.700
394.263	-6.200
394.285	-7.800
394.308	-2.800
394.330	-3.000
394.352	-14.200
394.375	-8.200
394.397	2.700
394.419	1.100
394.442	-2.500
394.464	-10.100
394.487	0.700
394.509	-3.100
394.531	-0.700
394.554	-2.600
394.576	-0.400
394.599	-12.500
394.621	-6.000
394.643	-2.500
394.666	-3.900
394.688	0.400
394.710	-13.800
394.733	-7.000
394.755	12.000
394.778	-13.300
394.800	-2.800
394.822	-13.500
394.845	2.600
394.867	-1.100
394.889	2.900
394.912	-7.200
394.934	-7.300
394.957	7.000
394.979	-2.000
395.001	-17.000
395.024	-3.000
395.046	8.800
395.068	3.100
395.091	-7.900
395.113	-3.400
395.136	-24.100
395.158	-18.000
395.180	-24.800
395.203	-16.800
395.225	-11.800
395.247	-15.300
395.270	-9.400
395.292	-2.300
395.315	4.100
395.337	-4.100
395.359	6.900
395.382	-0.700
395.404	4.900
395.427	14.300
395.449	-0.700
395.471	3.000
395.494	3.900
395.516	7.900
395.538	4.500
395.561	0.900
395.583	4.800
395.606	2.700
395.628	9.100
395.650	14.300
395.673	2.300
395.695	2.100
395.717	8.800
395.740	12.000
395.762	7.600
395.785	8.800
395.807	7.900
395.829	4.200
395.852	10.800
395.874	8.600
395.896	-8.700
395.919	8.900
395.941	-0.200
395.964	2.700
395.986	10.200
396.008	14.000
396.031	8.900
396.053	14.300
396.075	4.400
396.098	5.600
396.120	0.600
396.143	7.400
396.165	8.700
396.187	0.000
396.210	-3.600
396.232	6.700
396.255	7.700
396.277	4.100
396.299	8.300
396.322	9.500
396.344	-0.300
396.366	-4.000
396.389	3.700
396.411	-1.500
396.434	-4.100
396.456	3.700
396.478	-0.500
396.501	2.700
396.523	3.800
396.545	-4.200
396.568	3.800
396.590	9.400
396.613	-1.700
396.635	0.700
396.657	5.400
396.680	-3.900
396.702	5.400
396.724	7.600
396.747	2.800
396.769	1.600
396.792	-1.600
396.814	3.400
396.836	1.000
396.859	-7.500
396.881	-1.100
396.903	2.300
396.926	-2.100
396.948	6.500
396.971	-2.400
396.993	-7.000
397.015	0.000
397.038	-6.500
397.060	-23.000
397.082	-3.300
397.105	-10.400
397.127	-8.400
397.150	10.500
397.172	-4.300
397.194	-14.900
397.217	-33.200
397.239	-29.100
397.262	-15.100
397.284	-31.100
397.306	-42.200
397.329	-136.100
397.351	-237.300
397.373	-343.000
397.396	-491.000
397.418	-600.900
397.441	-739.100
397.463	-809.400
397.485	-860.100
397.508	-835.700
397.530	-790.900
397.552	-586.500
397.575	-643.000
397.597	-569.300
397.620	-464.100
397.642	-381.000
397.664	-283.100
397.687	-292.100
397.709	-248.200
397.731	-255.100
397.754	-299.400
397.776	-341.100
397.799	-336.400
397.821	-426.500
397.843	-528.300
397.866	-727.200
397.888	-714.400
397.910	-875.800
397.933	-1645.300
397.955	-9.800
397.978	0.000
398.000	0.000
398.022	0.000
398.045	0.000
398.067	0.000
398.090	-4433.500
398.112	-1546.000
398.134	-1038.000
398.157	-996.800
398.179	-967.200
398.201	-920.000
398.224	-919.000
398.246	-1206.500
398.269	-979.700
398.291	-678.300
398.313	-653.600
398.336	-295.900
398.358	-782.300
398.380	-2042.100
398.403	-1375.600
398.425	-454.500
398.448	-294.800
398.470	-212.000
398.492	-181.000
398.515	-106.600
398.537	-125.500
398.559	-183.200
398.582	-171.900
398.604	-158.900
398.627	-142.000
398.649	-126.600
398.671	-98.000
398.694	-41.500
398.716	-25.600
398.738	-28.900
398.761	-34.100
398.783	-32.100
398.806	-14.500
398.828	-20.500
398.850	-25.800
398.873	-29.100
398.895	-8.000
398.918	-27.700
398.940	-18.600
398.962	-5.300
398.985	-16.100
399.007	-20.500
399.029	-1.900
399.052	-27.300
399.074	-23.500
399.097	-18.600
399.119	-16.500
399.141	-23.100
399.164	-13.700
399.186	-12.400
399.208	-13.100
399.231	-21.200
399.253	-17.500
399.276	-16.700
399.298	-18.600
399.320	-19.100
399.343	-8.600
399.365	-10.000
399.387	-11.300
399.410	-13.500
399.432	-12.500
399.455	-14.700
399.477	-8.200
399.499	-7.400
399.522	-14.900
399.544	-12.500
399.566	-4.400
399.589	-6.600
399.611	0.000
399.634	-11.300
399.656	-17.100
399.678	-4.100
399.701	-6.900
399.723	-9.700
399.745	-8.300
399.768	-11.300
399.790	-6.700
399.813	-14.400
399.835	-4.600
399.857	-6.000
399.880	-9.000
399.902	-6.300
399.925	-1.200
399.947	-6.500
399.969	-11.900
399.992	-13.600
400.014	-5.600
400.036	4.300
400.059	-6.100
400.081	-11.900
400.104	-11.300
400.126	-5.200
400.148	-4.000
400.171	-4.100
400.193	-8.100
400.215	-3.700
400.238	-3.500
400.260	-2.100
400.283	-4.300
400.305	-1.000
400.327	-7.000
400.350	-2.400
400.372	3.400
400.394	-6.800
400.417	2.000
400.439	-4.800
400.462	-0.300
400.484	-7.300
400.506	2.700
400.529	-2.500
400.551	-2.600
400.573	4.000
400.596	-5.000
400.618	5.700
400.641	-5.800
400.663	6.100
400.685	1.800
400.708	-1.500
400.730	-11.200
400.753	-10.600
400.775	-5.600
400.797	0.200
400.820	-17.500
400.842	-14.700
400.864	-17.100
400.887	-11.000
400.909	15.300
400.932	21.200
400.954	22.300
400.976	20.100
400.999	13.500
401.021	26.600
401.043	31.300
401.066	30.800
401.088	26.700
401.111	19.900
401.133	29.000
401.155	36.300
401.178	52.300
401.200	30.200
401.222	40.900
401.245	20.200
401.267	17.600
401.290	47.500
401.312	47.600
401.334	38.900
401.357	26.700
401.379	52.400
401.401	78.100
401.424	66.000
401.446	65.100
401.469	50.800
401.491	50.700
401.513	142.600
401.536	312.500
401.558	465.300
401.581	419.600
401.603	624.400
401.625	910.600
401.648	684.600
401.670	678.900
401.692	1098.000
401.715	871.000
401.737	487.200
401.760	552.300
401.782	596.300
401.804	722.800
401.827	907.400
401.849	628.700
401.871	213.700
401.894	27.000
401.916	7.600
401.939	4.400
401.961	2.800
401.983	1.500
402.006	2.900
402.028	5.800
402.050	4.900
402.073	4.200
402.095	5.700
402.118	2.900
402.140	3.500
402.162	3.600
402.185	4.300
402.207	6.400
402.229	-2.700
402.252	1.800
402.274	-2.900
402.297	0.900
402.319	3.100
402.341	1.900
402.364	0.200
402.386	2.200
402.408	1.200
402.431	3.000
402.453	-3.800
402.476	-4.200
402.498	3.400
402.520	0.200
402.543	1.600
402.565	1.400
402.588	-0.100
402.610	-3.700
402.632	-2.500
402.655	-1.600
402.677	0.800
402.699	-1.100
402.722	-1.000
402.744	0.300
402.767	-4.900
402.789	-5.000
402.811	0.900
402.834	2.300
402.856	2.900
402.878	-0.100
402.901	-1.400
402.923	-1.100
402.946	-0.200
402.968	-3.000
402.990	-1.500
403.013	2.000
403.035	1.600
403.057	1.800
403.080	-1.600
403.102	-2.000
403.125	1.500
403.147	-1.600
403.169	-0.400
403.192	0.800
403.214	-1.200
403.236	-0.200
403.259	1.200
403.281	3.700
403.304	3.700
403.326	8.000
403.348	4.700
403.371	6.200
403.393	5.000
403.415	3.000
403.438	3.500
403.460	5.000
403.483	5.800
403.505	5.700
403.527	7.400
403.550	3.300
403.572	2.200
403.595	7.200
403.617	7.000
403.639	7.500
403.662	5.000
403.684	10.000
403.706	8.800
403.729	9.300
403.751	6.400
403.774	3.800
403.796	9.400
403.818	4.300
403.841	-0.100
403.863	1.100
403.885	0.700
403.908	2.500
403.930	-2.000
403.953	-1.600
403.975	-0.700
403.997	1.100
404.020	0.200
404.042	-0.800
404.064	1.500
404.087	3.300
404.109	-2.400
404.132	-0.200
404.154	-1.500
404.176	-0.700
404.199	0.400
404.221	0.300
404.243	-1.000
404.266	-0.600
404.288	-2.200
404.311	-0.200
404.333	-1.500
404.355	3.300
404.378	-2.000
404.400	-1.100
404.423	-1.100
404.445	-0.600
404.467	0.700
404.490	-1.800
404.512	-0.500
404.534	2.000
404.557	-0.100
404.579	0.100
404.602	-0.700
404.624	-1.500
404.646	-2.700
404.669	1.300
404.691	2.100
404.713	2.700
404.736	0.300
404.758	3.200
404.781	-3.000
404.803	1.900
404.825	-1.400
404.848	-5.000
404.870	-3.200
404.892	3.300
404.915	-3.500
404.937	-2.600
404.960	1.500
404.982	0.100
405.004	2.000
405.027	3.100
405.049	-2.700
405.072	2.500
405.094	0.100
405.116	-0.500
405.139	3.300
405.161	-1.800
405.183	0.200
405.206	-0.600
405.228	1.700
405.251	3.200
405.273	3.400
405.295	0.800
405.318	-0.300
405.340	-0.600
405.362	1.900
405.385	0.100
405.407	1.000
405.430	-0.100
405.452	-2.800
405.474	0.500
405.497	-1.000
405.519	4.600
405.541	-1.600
405.564	1.300
405.586	-0.700
405.609	-4.200
405.631	-4.000
405.653	0.600
405.676	0.900
405.698	-0.800
405.720	1.100
405.743	-2.000
405.765	-2.700
405.788	0.700
405.810	-2.300
405.832	-1.600
405.855	-0.900
405.877	0.700
405.899	1.500
405.922	0.100
405.944	1.900
405.967	-0.400
405.989	-0.800
406.011	-0.100
406.034	-1.400
406.056	-0.800
406.078	-2.200
406.101	0.500
406.123	1.700
406.146	-1.900
406.168	-0.700
406.190	-0.600
406.213	-2.600
406.235	-0.400
406.258	-1.900
406.280	0.600
406.302	-0.700
406.325	-1.600
406.347	-3.000
406.369	2.200
406.392	-1.900
406.414	-1.300
406.437	0.700
406.459	2.200
406.481	-1.200
406.504	-1.200
406.526	-0.100
406.548	1.700
406.571	-2.600
406.593	1.400
406.616	-1.700
406.638	0.500
406.660	-0.600
406.683	-0.800
406.705	-1.300
406.727	0.200
406.750	-0.900
406.772	2.400
406.795	0.100
406.817	1.300
406.839	2.200
406.862	-1.200
406.884	-1.500
406.906	-2.800
406.929	0.200
406.951	-2.200
406.974	1.500
406.996	0.700
407.018	0.300
407.041	1.100
407.063	-1.100
407.086	-0.800
407.108	-1.600
407.130	0.100
407.153	0.800
407.175	-1.700
407.197	-1.300
407.220	1.300
407.242	0.000
407.265	1.100
407.287	-1.500
407.309	-0.900
407.332	-0.400
407.354	-1.000
407.376	-1.100
407.399	-0.500
407.421	-0.700
407.444	-0.600
407.466	-0.900
407.488	1.800
407.511	3.000
407.533	-1.900
407.555	-0.800
407.578	1.600
407.600	2.100
407.623	-2.700
407.645	-0.300
407.667	0.300
407.690	-0.900
407.712	-1.000
407.734	-2.400
407.757	1.000
407.779	-0.700
407.802	-0.500
407.824	-2.600
407.846	-1.400
407.869	0.100
407.891	-1.500
407.914	0.100
407.936	-1.100
407.958	-0.900
407.981	0.400
408.003	-0.500
408.025	-1.100
408.048	0.900
408.070	0.000
408.093	1.800
408.115	1.400
408.137	1.000
408.160	0.600
408.182	1.000
408.204	1.500
408.227	-3.200
408.249	1.300
408.272	-0.300
408.294	-1.200
408.316	-1.200
408.339	-0.400
408.361	-0.300
408.383	1.400
408.406	2.400
408.428	1.200
408.451	1.200
408.473	-0.300
408.495	-2.600
408.518	-1.800
408.540	0.800
408.562	-0.600
408.585	0.000
408.607	0.500
408.630	0.300
408.652	-1.400
408.674	-2.400
408.697	-0.600
408.719	1.000
408.741	2.300
408.764	-0.200
408.786	-2.500
408.809	-1.000
408.831	-2.500
408.853	1.000
408.876	-2.500
408.898	-2.500
408.921	-0.800
408.943	-0.700
408.965	0.700
408.988	-0.900
409.010	-1.300
409.032	-1.100
409.055	2.000
409.077	0.400
409.100	-2.600
409.122	1.800
409.144	0.200
409.167	-0.900
409.189	-2.100
409.211	-2.000
409.234	-0.800
409.256	0.800
409.279	-2.700
409.301	1.000
409.323	-0.400
409.346	1.700
409.368	0.000
409.390	-0.500
409.413	-0.500
409.435	-0.400
