386.542	1.300
386.565	-2.600
386.587	0.400
386.610	-2.100
386.632	-1.000
386.654	-2.900
386.677	-3.400
386.699	0.600
386.721	0.000
386.744	0.200
386.766	-0.100
386.789	-0.800
386.811	-0.600
386.833	-2.500
386.856	-0.200
386.878	-0.400
386.900	-1.000
386.923	-0.700
386.945	0.200
386.968	-3.800
386.990	-2.500
387.012	-2.000
387.035	-0.900
387.057	-0.500
387.079	1.500
387.102	-0.800
387.124	-3.700
387.147	-0.300
387.169	-0.900
387.191	0.100
387.214	-2.000
387.236	2.800
387.259	-0.700
387.281	-1.200
387.303	-3.900
387.326	-2.100
387.348	1.500
387.370	-1.600
387.393	-0.300
387.415	0.000
387.438	2.300
387.460	-0.700
387.482	-0.100
387.505	1.200
387.527	-1.100
387.549	-1.500
387.572	0.500
387.594	-0.600
387.617	-1.700
387.639	0.200
387.661	-0.900
387.684	-1.100
387.706	-0.700
387.728	0.300
387.751	-3.000
387.773	1.600
387.796	-2.400
387.818	-1.000
387.840	-0.100
387.863	-0.400
387.885	-1.400
387.907	-1.100
387.930	1.300
387.952	2.300
387.975	-1.700
387.997	-0.400
388.019	0.700
388.042	-2.000
388.064	1.100
388.086	-0.600
388.109	0.600
388.131	-2.100
388.154	-0.100
388.176	1.200
388.198	-2.000
388.221	-2.300
388.243	1.200
388.266	0.900
388.288	-2.200
388.310	2.300
388.333	-0.700
388.355	-0.100
388.377	0.600
388.400	0.000
388.422	0.700
388.445	-0.400
388.467	-0.300
388.489	1.100
388.512	-0.900
388.534	1.200
388.556	-0.100
388.579	-2.700
388.601	-0.200
388.624	-2.600
388.646	2.000
388.668	-2.000
388.691	1.800
388.713	-2.000
388.735	1.800
388.758	2.400
388.780	-0.400
388.803	3.900
388.825	2.600
388.847	-2.800
388.870	-1.500
388.892	0.200
388.914	2.900
388.937	2.500
388.959	1.100
388.982	1.000
389.004	-2.100
389.026	-0.100
389.049	-1.400
389.071	1.700
389.094	0.800
389.116	-2.100
389.138	0.700
389.161	2.000
389.183	0.600
389.205	1.600
389.228	0.200
389.250	2.700
389.273	3.900
389.295	0.400
389.317	0.600
389.340	3.800
389.362	0.500
389.384	3.800
389.407	3.400
389.429	-0.100
389.452	2.000
389.474	0.500
389.496	0.800
389.519	1.400
389.541	2.200
389.563	3.800
389.586	0.500
389.608	2.900
389.631	1.800
389.653	1.900
389.675	0.100
389.698	4.000
389.720	4.500
389.742	2.300
389.765	5.500
389.787	2.400
389.810	0.900
389.832	4.400
389.854	1.800
389.877	3.500
389.899	5.000
389.922	1.700
389.944	2.800
389.966	5.300
389.989	6.000
390.011	3.700
390.033	5.200
390.056	3.600
390.078	2.600
390.101	3.100
390.123	2.600
390.145	4.800
390.168	6.500
390.190	5.400
390.212	6.100
390.235	8.300
390.257	2.300
390.280	8.600
390.302	6.100
390.324	7.400
390.347	5.100
390.369	8.000
390.391	11.000
390.414	5.700
390.436	6.500
390.459	5.700
390.481	10.200
390.503	9.900
390.526	8.100
390.548	8.200
390.570	6.800
390.593	4.800
390.615	3.400
390.638	10.100
390.660	6.500
390.682	8.400
390.705	6.500
390.727	7.600
390.749	9.600
390.772	11.700
390.794	6.600
390.817	7.000
390.839	6.600
390.861	10.400
390.884	6.300
390.906	4.000
390.928	11.800
390.951	6.800
390.973	8.600
390.996	6.000
391.018	8.900
391.040	9.400
391.063	8.000
391.085	6.400
391.108	5.800
391.130	6.800
391.152	6.000
391.175	8.400
391.197	9.600
391.219	7.300
391.242	8.200
391.264	7.400
391.287	9.800
391.309	-0.300
391.331	5.800
391.354	5.700
391.376	3.800
391.398	1.900
391.421	5.700
391.443	3.900
391.466	6.000
391.488	10.700
391.510	3.700
391.533	2.200
391.555	4.100
391.577	3.900
391.600	5.600
391.622	3.500
391.645	4.800
391.667	5.300
391.689	4.900
391.712	3.700
391.734	5.700
391.757	1.600
391.779	3.200
391.801	2.200
391.824	0.400
391.846	3.500
391.868	2.800
391.891	1.600
391.913	-0.700
391.936	2.000
391.958	1.500
391.980	-0.700
392.003	1.300
392.025	1.100
392.047	1.000
392.070	-1.000
392.092	-5.000
392.115	-3.000
392.137	-2.600
392.159	-0.800
392.182	2.700
392.204	2.500
392.226	-2.600
392.249	2.500
392.271	-1.500
392.294	-1.600
392.316	-3.000
392.338	1.600
392.361	-3.800
392.383	-3.100
392.405	-5.800
392.428	-5.600
392.450	-5.100
392.473	-3.900
392.495	-4.100
392.517	0.800
392.540	-5.200
392.562	-6.900
392.585	-0.400
392.607	-9.200
392.629	-6.500
392.652	-2.700
392.674	-4.400
392.696	-8.200
392.719	-5.000
392.741	-7.900
392.764	-8.200
392.786	-2.800
392.808	-6.800
392.831	-11.300
392.853	-2.800
392.875	-1.600
392.898	-5.600
392.920	-10.600
392.943	-9.600
392.965	-2.700
392.987	-11.400
393.010	-8.100
393.032	-2.000
393.054	-8.400
393.077	-11.200
393.099	-5.900
393.122	-5.700
393.144	-1.600
393.166	-3.600
393.189	-18.100
393.211	-6.200
393.233	-5.500
393.256	-8.500
393.278	-7.500
393.301	-7.000
393.323	-8.800
393.345	-9.300
393.368	-0.700
393.390	-8.000
393.412	-2.200
393.435	-7.100
393.457	-5.100
393.480	-9.100
393.502	-7.500
393.524	-1.100
393.547	-6.400
393.569	-0.700
393.592	-7.400
393.614	-0.400
393.636	-7.400
393.659	-11.000
393.681	-2.600
393.703	-0.900
393.726	-4.600
393.748	-4.700
393.771	-2.800
393.793	-0.100
393.815	2.400
393.838	-1.200
393.860	-0.500
393.882	-6.200
393.905	-1.900
393.927	-1.600
393.950	-4.200
393.972	-3.000
393.994	-1.100
394.017	-1.200
394.039	-2.000
394.061	-3.200
394.084	-2.700
394.106	-3.100
394.129	2.100
394.151	-2.800
394.173	-4.800
394.196	-3.200
394.218	-10.900
394.240	-15.500
394.263	-15.100
394.285	-16.500
394.308	-10.900
394.330	-9.500
394.352	-21.300
394.375	-13.800
394.397	-4.300
394.419	-2.900
394.442	-8.800
394.464	-16.700
394.487	-9.500
394.509	-15.200
394.531	-9.500
394.554	-11.600
394.576	-10.300
394.599	-18.000
394.621	-16.500
394.643	-8.200
394.666	-12.800
394.688	-11.200
394.710	-23.200
394.733	-18.100
394.755	-0.900
394.778	-26.900
394.800	-14.500
394.822	-25.000
394.845	-2.300
394.867	-9.400
394.889	-11.600
394.912	-16.700
394.934	-14.800
394.957	-0.700
394.979	-14.800
395.001	-24.800
395.024	-10.200
395.046	1.600
395.068	-1.800
395.091	-16.700
395.113	-3.700
395.136	-25.500
395.158	-23.700
395.180	-27.000
395.203	-22.600
395.225	-16.200
395.247	-8.800
395.270	-10.800
395.292	-4.500
395.315	-1.600
395.337	-9.500
395.359	-0.300
395.382	-9.100
395.404	-3.100
395.427	10.500
395.449	-5.500
395.471	-1.300
395.494	-1.200
395.516	3.200
395.538	3.700
395.561	-1.800
395.583	2.200
395.606	0.200
395.628	5.200
395.650	9.700
395.673	-1.100
395.695	-0.900
395.717	7.400
395.740	9.900
395.762	7.200
395.785	6.700
395.807	9.100
395.829	0.600
395.852	7.900
395.874	4.900
395.896	-11.200
395.919	7.100
395.941	-0.100
395.964	1.600
395.986	6.900
396.008	12.500
396.031	5.900
396.053	14.100
396.075	-1.000
396.098	2.800
396.120	2.400
396.143	5.400
396.165	9.200
396.187	-1.000
396.210	-3.300
396.232	8.700
396.255	6.100
396.277	3.000
396.299	7.500
396.322	5.000
396.344	0.500
396.366	-2.100
396.389	0.600
396.411	-2.600
396.434	-5.000
396.456	4.600
396.478	-1.900
396.501	-3.900
396.523	0.400
396.545	-5.900
396.568	-2.800
396.590	5.600
396.613	-1.900
396.635	-3.900
396.657	3.600
396.680	-7.400
396.702	1.500
396.724	2.500
396.747	0.500
396.769	-3.600
396.792	-3.000
396.814	1.600
396.836	-0.600
396.859	-7.200
396.881	-6.800
396.903	4.300
396.926	-2.400
396.948	5.700
396.971	3.300
396.993	-10.300
397.015	0.000
397.038	-9.200
397.060	-20.600
397.082	1.800
397.105	-10.500
397.127	-2.600
397.150	14.800
397.172	-8.400
397.194	-21.300
397.217	-29.500
397.239	-26.700
397.262	-11.000
397.284	-27.500
397.306	-33.500
397.329	-116.000
397.351	-202.000
397.373	-282.700
397.396	-385.100
397.418	-455.800
397.441	-578.000
397.463	-605.600
397.485	-647.400
397.508	-644.300
397.530	-637.400
397.552	-424.200
397.575	-516.200
397.597	-537.300
397.620	-415.200
397.642	-416.700
397.664	-320.100
397.687	-356.500
397.709	-303.000
397.731	-321.700
397.754	-327.800
397.776	-344.000
397.799	-381.800
397.821	-447.800
397.843	-502.300
397.866	-544.100
397.888	-475.100
397.910	-544.700
397.933	-1185.100
397.955	-5.500
397.978	0.000
398.000	0.000
398.022	0.000
398.045	0.000
398.067	0.000
398.090	-3233.700
398.112	-1126.900
398.134	-852.400
398.157	-748.600
398.179	-730.400
398.201	-698.900
398.224	-789.500
398.246	-824.800
398.269	-294.500
398.291	-79.700
398.313	-310.100
398.336	-136.300
398.358	-316.700
398.380	-149.100
398.403	-528.300
398.425	-292.600
398.448	-191.400
398.470	-117.600
398.492	-102.100
398.515	-41.300
398.537	-66.800
398.559	-137.100
398.582	-118.000
398.604	-134.700
398.627	-108.100
398.649	-90.600
398.671	-79.600
398.694	-40.100
398.716	-17.000
398.738	-26.800
398.761	-35.500
398.783	-30.300
398.806	-15.300
398.828	-20.400
398.850	-27.100
398.873	-30.000
398.895	-10.900
398.918	-27.300
398.940	-17.600
398.962	-9.000
398.985	-14.300
399.007	-17.300
399.029	0.500
399.052	-25.400
399.074	-22.000
399.097	-18.400
399.119	-13.800
399.141	-24.500
399.164	-13.100
399.186	-10.800
399.208	-13.500
399.231	-22.200
399.253	-14.700
399.276	-15.200
399.298	-19.100
399.320	-18.200
399.343	-13.100
399.365	-9.200
399.387	-9.800
399.410	-13.800
399.432	-14.000
399.455	-14.300
399.477	-10.200
399.499	-8.900
399.522	-14.700
399.544	-12.300
399.566	-6.100
399.589	-8.600
399.611	0.300
399.634	-13.100
399.656	-14.900
399.678	-6.400
399.701	-6.700
399.723	-9.900
399.745	-7.000
399.768	-13.000
399.790	-8.500
399.813	-13.400
399.835	-3.600
399.857	-7.300
399.880	-8.500
399.902	-3.600
399.925	-3.000
399.947	-6.800
399.969	-11.700
399.992	-11.700
400.014	-5.800
400.036	1.100
400.059	-6.100
400.081	-11.500
400.104	-7.800
400.126	-4.200
400.148	-6.300
400.171	-2.400
400.193	-7.800
400.215	-2.200
400.238	-2.700
400.260	-1.600
400.283	-5.600
400.305	-0.200
400.327	-8.100
400.350	-4.600
400.372	3.700
400.394	-7.300
400.417	3.800
400.439	-3.800
400.462	-1.100
400.484	-6.700
400.506	2.500
400.529	-0.700
400.551	-2.000
400.573	6.000
400.596	-5.800
400.618	1.900
400.641	-6.500
400.663	2.100
400.685	1.900
400.708	0.300
400.730	-10.500
400.753	-13.700
400.775	-7.100
400.797	-1.400
400.820	-15.300
400.842	-13.700
400.864	-15.800
400.887	-14.100
400.909	12.500
400.932	21.700
400.954	23.500
400.976	16.100
400.999	11.700
401.021	24.800
401.043	32.100
401.066	31.000
401.088	29.800
401.111	15.000
401.133	29.500
401.155	31.000
401.178	39.400
401.200	15.700
401.222	35.400
401.245	18.300
401.267	12.900
401.290	28.500
401.312	18.400
401.334	13.700
401.357	1.400
401.379	9.500
401.401	25.600
401.424	32.700
401.446	29.100
401.469	20.900
401.491	10.100
401.513	30.900
401.536	16.100
401.558	12.600
401.581	20.000
401.603	32.400
401.625	45.500
401.648	37.500
401.670	41.500
401.692	56.000
401.715	57.500
401.737	37.100
401.760	36.200
401.782	26.500
401.804	22.900
401.827	26.300
401.849	20.300
401.871	1.900
401.894	3.500
401.916	0.300
401.939	1.700
401.961	-2.500
401.983	-3.200
402.006	-1.600
402.028	0.100
402.050	0.800
402.073	-0.800
402.095	1.200
402.118	-0.200
402.140	0.800
402.162	-0.100
402.185	0.100
402.207	2.500
402.229	-2.400
402.252	3.200
402.274	-1.900
402.297	-1.100
402.319	-0.600
402.341	0.600
402.364	1.000
402.386	2.500
402.408	2.200
402.431	3.400
402.453	-3.000
402.476	-3.000
402.498	3.000
402.520	0.000
402.543	2.600
402.565	3.200
402.588	0.000
402.610	-2.000
402.632	-0.500
402.655	0.000
402.677	2.500
402.699	0.100
402.722	2.000
402.744	2.800
402.767	-2.400
402.789	-1.100
402.811	5.900
402.834	6.100
402.856	8.800
402.878	6.500
402.901	4.100
402.923	5.400
402.946	6.900
402.968	4.200
402.990	7.100
403.013	15.800
403.035	18.300
403.057	17.500
403.080	13.200
403.102	11.700
403.125	15.900
403.147	13.900
403.169	17.800
403.192	23.400
403.214	28.200
403.236	36.800
403.259	48.600
403.281	58.800
403.304	72.900
403.326	95.000
403.348	113.500
403.371	128.400
403.393	155.100
403.415	186.200
403.438	226.000
403.460	286.200
403.483	356.400
403.505	402.000
403.527	434.600
403.550	467.000
403.572	483.000
403.595	510.100
403.617	533.300
403.639	564.900
403.662	611.100
403.684	629.900
403.706	526.000
403.729	425.300
403.751	352.600
403.774	288.100
403.796	279.700
403.818	203.700
403.841	130.400
403.863	95.800
403.885	62.100
403.908	56.300
403.930	34.000
403.953	18.600
403.975	14.100
403.997	7.900
404.020	6.600
404.042	3.900
404.064	5.100
404.087	5.800
404.109	0.800
404.132	2.700
404.154	1.200
404.176	1.900
404.199	1.600
404.221	2.400
404.243	0.100
404.266	1.500
404.288	-0.700
404.311	2.000
404.333	1.800
404.355	5.000
404.378	-3.000
404.400	0.100
404.423	-0.900
404.445	0.300
404.467	2.400
404.490	-1.600
404.512	-1.300
404.534	1.500
404.557	0.100
404.579	1.400
404.602	1.200
404.624	-1.200
404.646	-3.100
404.669	0.500
404.691	1.700
404.713	2.000
404.736	-1.000
404.758	1.700
404.781	-2.200
404.803	0.200
404.825	-2.600
404.848	-3.700
404.870	-3.300
404.892	3.200
404.915	-3.400
404.937	-1.400
404.960	3.200
404.982	0.400
405.004	2.800
405.027	2.100
405.049	-2.000
405.072	2.900
405.094	0.400
405.116	-0.300
405.139	3.200
405.161	-0.900
405.183	-0.700
405.206	-0.700
405.228	0.400
405.251	4.600
405.273	2.700
405.295	1.900
405.318	-0.400
405.340	0.500
405.362	-1.100
405.385	0.000
405.407	1.000
405.430	0.100
405.452	-1.400
405.474	-0.500
405.497	-0.400
405.519	5.300
405.541	-2.100
405.564	2.600
405.586	-1.100
405.609	-4.400
405.631	-3.300
405.653	-0.100
405.676	0.700
405.698	-1.200
405.720	1.700
405.743	-1.000
405.765	-1.900
405.788	1.500
405.810	-2.400
405.832	-1.200
405.855	0.400
405.877	0.700
405.899	2.100
405.922	0.800
405.944	0.900
405.967	-0.400
405.989	-0.200
406.011	-0.200
406.034	-1.000
406.056	-0.600
406.078	-2.000
406.101	1.100
406.123	2.300
406.146	-1.800
406.168	0.500
406.190	-1.100
406.213	-2.300
406.235	-0.100
406.258	-1.600
406.280	1.400
406.302	0.200
406.325	-1.700
406.347	-3.000
406.369	1.700
406.392	-1.800
406.414	-0.200
406.437	1.500
406.459	2.200
406.481	-1.100
406.504	-0.700
406.526	0.000
406.548	1.300
406.571	-1.300
406.593	1.900
406.616	-1.100
406.638	0.700
406.660	-0.200
406.683	0.400
406.705	-0.500
406.727	0.800
406.750	0.400
406.772	2.000
406.795	-0.100
406.817	2.100
406.839	2.600
406.862	-0.500
406.884	-0.100
406.906	-2.400
406.929	1.000
406.951	-1.100
406.974	1.900
406.996	1.500
407.018	1.300
407.041	1.900
407.063	-1.600
407.086	0.000
407.108	-1.500
407.130	1.000
407.153	0.900
407.175	-1.200
407.197	-0.600
407.220	2.800
407.242	0.500
407.265	1.100
407.287	0.100
407.309	0.400
407.332	0.500
407.354	-0.800
407.376	-0.900
407.399	-0.800
407.421	0.000
407.444	0.100
407.466	-0.600
407.488	1.400
407.511	3.200
407.533	-1.500
407.555	0.900
407.578	1.200
407.600	2.900
407.623	-2.400
407.645	0.700
407.667	-0.300
407.690	-0.800
407.712	0.000
407.734	-0.900
407.757	1.900
407.779	-1.100
407.802	0.600
407.824	-1.400
407.846	-1.200
407.869	0.900
407.891	-1.200
407.914	1.400
407.936	-1.600
407.958	-0.500
407.981	0.900
408.003	-0.400
408.025	-0.200
408.048	1.300
408.070	0.700
408.093	1.300
408.115	1.500
408.137	1.800
408.160	0.400
408.182	-0.200
408.204	1.500
408.227	-2.000
408.249	1.200
408.272	-0.700
408.294	-0.500
408.316	-0.500
408.339	-0.800
408.361	0.800
408.383	1.000
408.406	2.500
408.428	0.600
408.451	1.100
408.473	-0.500
408.495	-2.300
408.518	-1.400
408.540	1.500
408.562	-0.700
408.585	0.000
408.607	-0.800
408.630	-0.200
408.652	-1.000
408.674	-2.400
408.697	-0.900
408.719	0.400
408.741	3.200
408.764	-0.300
408.786	-2.400
408.809	-0.300
408.831	-2.200
408.853	1.300
408.876	-2.500
408.898	-2.400
408.921	0.000
408.943	-0.900
408.965	1.000
408.988	-0.500
409.010	-1.200
409.032	-0.900
409.055	2.800
409.077	0.500
409.100	-2.300
409.122	1.900
409.144	0.400
409.167	-0.500
409.189	-1.400
409.211	-1.700
409.234	-1.400
409.256	1.900
409.279	-2.400
409.301	0.900
409.323	0.200
409.346	2.300
409.368	-0.200
409.390	-1.200
409.413	-0.200
409.435	0.400
