386.542	0.700
386.565	0.300
386.587	1.100
386.610	0.900
386.632	1.000
386.654	1.700
386.677	1.200
386.699	1.300
386.721	1.400
386.744	1.100
386.766	0.600
386.789	0.900
386.811	0.800
386.833	0.300
386.856	0.900
386.878	0.800
386.900	0.700
386.923	0.400
386.945	0.900
386.968	1.400
386.990	0.100
387.012	1.500
387.035	0.800
387.057	0.200
387.079	0.800
387.102	0.600
387.124	0.600
387.147	1.400
387.169	2.200
387.191	1.400
387.214	1.200
387.236	1.700
387.259	0.600
387.281	1.200
387.303	1.200
387.326	1.000
387.348	0.700
387.370	1.700
387.393	0.700
387.415	0.900
387.438	1.200
387.460	1.400
387.482	0.800
387.505	1.100
387.527	1.000
387.549	0.800
387.572	0.800
387.594	0.800
387.617	1.000
387.639	0.700
387.661	0.700
387.684	1.000
387.706	0.900
387.728	1.100
387.751	2.200
387.773	1.500
387.796	1.500
387.818	0.200
387.840	1.000
387.863	1.200
387.885	2.000
387.907	0.700
387.930	0.400
387.952	1.300
387.975	0.600
387.997	1.800
388.019	1.700
388.042	0.700
388.064	0.500
388.086	1.500
388.109	1.200
388.131	1.500
388.154	1.000
388.176	0.900
388.198	2.200
388.221	0.900
388.243	1.100
388.266	0.900
388.288	0.800
388.310	1.400
388.333	1.200
388.355	1.000
388.377	0.600
388.400	0.300
388.422	1.300
388.445	1.800
388.467	1.100
388.489	0.100
388.512	1.500
388.534	0.800
388.556	1.500
388.579	1.200
388.601	1.300
388.624	1.200
388.646	0.900
388.668	1.200
388.691	1.300
388.713	1.600
388.735	1.100
388.758	1.000
388.780	0.800
388.803	0.700
388.825	1.700
388.847	1.700
388.870	0.600
388.892	1.000
388.914	1.900
388.937	1.000
388.959	0.900
388.982	0.700
389.004	1.600
389.026	1.300
389.049	2.400
389.071	0.300
389.094	1.100
389.116	1.700
389.138	1.600
389.161	0.600
389.183	1.200
389.205	1.700
389.228	0.500
389.250	0.700
389.273	1.200
389.295	1.500
389.317	1.600
389.340	1.800
389.362	0.000
389.384	0.700
389.407	0.800
389.429	0.600
389.452	1.600
389.474	0.500
389.496	1.900
389.519	1.100
389.541	1.300
389.563	0.200
389.586	0.900
389.608	1.000
389.631	0.800
389.653	1.400
389.675	0.900
389.698	1.100
389.720	1.400
389.742	1.200
389.765	1.600
389.787	1.200
389.810	0.200
389.832	1.600
389.854	1.300
389.877	1.400
389.899	1.900
389.922	0.100
389.944	1.500
389.966	1.900
389.989	1.100
390.011	0.900
390.033	0.400
390.056	0.700
390.078	1.400
390.101	1.300
390.123	1.700
390.145	0.900
390.168	1.400
390.190	1.600
390.212	1.800
390.235	1.300
390.257	0.800
390.280	0.700
390.302	1.300
390.324	0.200
390.347	0.600
390.369	0.100
390.391	0.400
390.414	1.300
390.436	0.500
390.459	0.700
390.481	1.000
390.503	0.900
390.526	1.100
390.548	1.000
390.570	0.700
390.593	0.500
390.615	1.200
390.638	1.300
390.660	1.000
390.682	2.100
390.705	1.400
390.727	0.500
390.749	1.000
390.772	0.900
390.794	0.900
390.817	0.500
390.839	1.700
390.861	1.900
390.884	1.100
390.906	1.400
390.928	0.500
390.951	0.900
390.973	1.400
390.996	1.900
391.018	0.400
391.040	1.300
391.063	0.800
391.085	0.600
391.108	1.200
391.130	1.200
391.152	1.600
391.175	0.700
391.197	1.300
391.219	1.400
391.242	1.700
391.264	1.100
391.287	1.900
391.309	1.800
391.331	0.900
391.354	0.500
391.376	2.100
391.398	1.900
391.421	1.600
391.443	1.100
391.466	1.500
391.488	0.700
391.510	1.100
391.533	1.500
391.555	1.000
391.577	2.300
391.600	1.000
391.622	1.300
391.645	1.900
391.667	1.300
391.689	0.400
391.712	1.500
391.734	0.800
391.757	1.500
391.779	2.000
391.801	1.500
391.824	1.300
391.846	1.900
391.868	1.800
391.891	0.500
391.913	1.600
391.936	1.700
391.958	2.200
391.980	2.500
392.003	1.500
392.025	1.500
392.047	2.300
392.070	2.400
392.092	2.100
392.115	0.700
392.137	0.500
392.159	2.100
392.182	1.400
392.204	1.200
392.226	2.100
392.249	1.600
392.271	0.600
392.294	3.000
392.316	2.700
392.338	1.700
392.361	2.200
392.383	1.500
392.405	2.400
392.428	1.800
392.450	2.300
392.473	1.400
392.495	2.100
392.517	5.400
392.540	7.200
392.562	3.100
392.585	0.500
392.607	1.200
392.629	2.000
392.652	3.800
392.674	1.600
392.696	0.600
392.719	2.300
392.741	8.300
392.764	12.900
392.786	6.200
392.808	1.300
392.831	1.300
392.853	2.400
392.875	4.100
392.898	3.600
392.920	-0.200
392.943	1.100
392.965	6.900
392.987	19.100
393.010	12.100
393.032	2.900
393.054	0.800
393.077	1.900
393.099	4.300
393.122	3.800
393.144	1.200
393.166	2.600
393.189	5.400
393.211	17.000
393.233	18.200
393.256	5.100
393.278	1.200
393.301	1.600
393.323	3.900
393.345	3.900
393.368	2.000
393.390	-0.300
393.412	1.800
393.435	10.000
393.457	17.800
393.480	7.100
393.502	2.400
393.524	0.500
393.547	3.000
393.569	4.500
393.592	4.100
393.614	0.800
393.636	-0.600
393.659	2.800
393.681	13.200
393.703	9.900
393.726	1.900
393.748	0.700
393.771	0.900
393.793	1.800
393.815	1.900
393.838	0.100
393.860	0.600
393.882	0.800
393.905	5.200
393.927	9.100
393.950	1.100
393.972	1.000
393.994	1.600
394.017	3.400
394.039	4.100
394.061	4.000
394.084	1.600
394.106	2.800
394.129	18.900
394.151	56.500
394.173	35.500
394.196	5.000
394.218	2.700
394.240	10.100
394.263	55.700
394.285	54.500
394.308	15.400
394.330	7.900
394.352	74.000
394.375	489.800
394.397	774.000
394.419	261.200
394.442	24.700
394.464	17.400
394.487	159.800
394.509	385.600
394.531	208.300
394.554	28.400
394.576	31.500
394.599	365.500
394.621	1437.500
394.643	1243.400
394.666	229.900
394.688	13.700
394.710	18.300
394.733	140.500
394.755	202.600
394.778	58.100
394.800	-0.400
394.822	11.700
394.845	209.200
394.867	512.600
394.889	264.900
394.912	25.300
394.934	-4.300
394.957	7.200
394.979	54.200
395.001	39.600
395.024	0.000
395.046	-8.700
395.068	9.200
395.091	138.400
395.113	196.300
395.136	53.500
395.158	-6.700
395.180	-7.200
395.203	9.700
395.225	39.900
395.247	15.400
395.270	-4.700
395.292	-5.700
395.315	35.600
395.337	180.700
395.359	153.500
395.382	20.800
395.404	-8.500
395.427	-1.800
395.449	30.700
395.471	48.300
395.494	13.500
395.516	-4.800
395.538	0.600
395.561	102.900
395.583	293.900
395.606	171.400
395.628	14.500
395.650	-2.800
395.673	8.600
395.695	69.500
395.717	76.600
395.740	14.300
395.762	-0.100
395.785	22.000
395.807	209.100
395.829	424.700
395.852	175.100
395.874	15.100
395.896	1.800
395.919	20.100
395.941	76.400
395.964	57.600
395.986	10.200
396.008	1.500
396.031	36.300
396.053	263.700
396.075	397.100
396.098	130.800
396.120	10.200
396.143	6.200
396.165	50.300
396.187	146.500
396.210	87.500
396.232	13.100
396.255	6.700
396.277	68.400
396.299	372.600
396.322	472.900
396.344	124.500
396.366	7.900
396.389	4.600
396.411	35.300
396.434	91.000
396.456	43.800
396.478	2.700
396.501	-2.400
396.523	60.700
396.545	314.100
396.568	318.700
396.590	68.300
396.613	-2.100
396.635	-3.000
396.657	27.600
396.680	63.200
396.702	24.000
396.724	-3.400
396.747	-7.100
396.769	33.200
396.792	159.400
396.814	147.900
396.836	18.300
396.859	-9.700
396.881	-5.700
396.903	3.000
396.926	16.500
396.948	-0.300
396.971	-10.300
396.993	-13.200
397.015	5.000
397.038	57.200
397.060	45.800
397.082	-7.600
397.105	-19.900
397.127	-19.200
397.150	-15.100
397.172	-8.700
397.194	-21.100
397.217	-26.700
397.239	-23.000
397.262	-13.000
397.284	-10.000
397.306	-10.300
397.329	-42.700
397.351	-62.100
397.373	-103.700
397.396	-123.000
397.418	-148.900
397.441	-170.600
397.463	-252.600
397.485	-283.100
397.508	-324.100
397.530	-344.000
397.552	-403.100
397.575	-407.300
397.597	-415.800
397.620	-427.100
397.642	-488.900
397.664	-479.800
397.687	-525.900
397.709	-530.600
397.731	-512.300
397.754	-615.600
397.776	-776.800
397.799	-934.400
397.821	-919.300
397.843	-959.400
397.866	-1176.700
397.888	-1457.900
397.910	-15.500
397.933	0.000
397.955	0.000
397.978	0.000
398.000	0.000
398.022	0.000
398.045	-2199.000
398.067	-1445.100
398.090	-1116.900
398.112	-955.000
398.134	-834.500
398.157	-633.100
398.179	-483.500
398.201	-398.700
398.224	-356.400
398.246	-296.500
398.269	-261.100
398.291	-228.300
398.313	-219.800
398.336	-195.200
398.358	-171.100
398.380	-156.900
398.403	-142.200
398.425	-144.700
398.448	-124.800
398.470	-117.400
398.492	-110.500
398.515	-104.800
398.537	-93.400
398.559	-96.600
398.582	-84.100
398.604	-81.400
398.627	-44.300
398.649	-7.000
398.671	-16.300
398.694	-27.000
398.716	-21.700
398.738	-21.500
398.761	-15.500
398.783	-7.400
398.806	-14.100
398.828	-15.400
398.850	-15.300
398.873	26.200
398.895	109.700
398.918	70.800
398.940	-1.100
398.962	-12.400
398.985	-9.600
399.007	14.900
399.029	33.600
399.052	3.200
399.074	-4.900
399.097	0.800
399.119	84.100
399.141	310.500
399.164	252.300
399.186	43.500
399.208	-3.600
399.231	3.700
399.253	54.900
399.276	112.800
399.298	46.300
399.320	5.300
399.343	10.500
399.365	152.100
399.387	609.500
399.410	594.500
399.432	131.700
399.455	10.000
399.477	10.200
399.499	80.100
399.522	166.700
399.544	86.500
399.566	14.300
399.589	16.200
399.611	160.700
399.634	718.800
399.656	818.200
399.678	222.700
399.701	22.300
399.723	18.200
399.745	102.800
399.768	268.000
399.790	174.900
399.813	34.200
399.835	14.700
399.857	103.500
399.880	556.000
399.902	798.600
399.925	270.200
399.947	31.200
399.969	14.900
399.992	51.500
400.014	161.700
400.036	131.700
400.059	27.900
400.081	12.600
400.104	71.000
400.126	445.200
400.148	830.200
400.171	363.300
400.193	45.800
400.215	6.700
400.238	45.100
400.260	168.700
400.283	168.700
400.305	43.300
400.327	7.600
400.350	42.500
400.372	303.200
400.394	671.700
400.417	367.500
400.439	49.300
400.462	1.600
400.484	20.900
400.506	91.800
400.529	116.600
400.551	33.400
400.573	0.700
400.596	18.800
400.618	174.500
400.641	477.900
400.663	350.500
400.685	56.800
400.708	1.500
400.730	11.900
400.753	73.500
400.775	114.300
400.797	44.800
400.820	5.300
400.842	17.500
400.864	158.100
400.887	472.400
400.909	432.700
400.932	103.600
400.954	8.900
400.976	18.600
400.999	99.600
401.021	178.100
401.043	93.300
401.066	19.100
401.088	52.200
401.111	348.900
401.133	999.800
401.155	1023.200
401.178	318.000
401.200	40.400
401.222	66.900
401.245	266.800
401.267	508.700
401.290	327.900
401.312	81.100
401.334	128.000
401.357	873.200
401.379	2860.500
401.401	3506.100
401.424	1318.300
401.446	173.200
401.469	104.400
401.491	426.500
401.513	901.700
401.536	670.500
401.558	166.400
401.581	69.000
401.603	363.300
401.625	1348.600
401.648	1977.300
401.670	917.800
401.692	137.800
401.715	28.300
401.737	52.000
401.760	133.100
401.782	131.900
401.804	45.500
401.827	11.100
401.849	14.100
401.871	48.900
401.894	102.200
401.916	68.700
401.939	16.600
401.961	5.000
401.983	6.500
402.006	8.000
402.028	11.300
402.050	6.800
402.073	5.300
402.095	5.400
402.118	13.400
402.140	25.500
402.162	19.500
402.185	7.900
402.207	4.200
402.229	5.300
402.252	6.500
402.274	8.400
402.297	5.000
402.319	3.700
402.341	4.400
402.364	13.200
402.386	29.000
402.408	28.800
402.431	12.000
402.453	3.000
402.476	5.100
402.498	8.200
402.520	11.200
402.543	8.100
402.565	4.500
402.588	5.600
402.610	14.500
402.632	37.000
402.655	41.800
402.677	17.000
402.699	4.900
402.722	4.800
402.744	9.400
402.767	13.600
402.789	11.800
402.811	5.600
402.834	6.100
402.856	15.000
402.878	36.200
402.901	49.200
402.923	26.000
402.946	7.400
402.968	5.800
402.990	7.000
403.013	12.100
403.035	13.000
403.057	6.300
403.080	4.700
403.102	12.000
403.125	30.100
403.147	45.900
403.169	27.400
403.192	9.000
403.214	4.400
403.236	6.800
403.259	10.700
403.281	11.600
403.304	6.500
403.326	4.400
403.348	8.600
403.371	17.400
403.393	30.700
403.415	24.000
403.438	9.200
403.460	4.300
403.483	4.900
403.505	8.400
403.527	8.800
403.550	6.800
403.572	5.500
403.595	6.100
403.617	11.400
403.639	17.400
403.662	16.200
403.684	6.900
403.706	5.500
403.729	6.000
403.751	5.900
403.774	5.800
403.796	5.700
403.818	5.800
403.841	4.700
403.863	7.600
403.885	9.900
403.908	9.300
403.930	6.600
403.953	4.500
403.975	4.800
403.997	4.300
404.020	5.100
404.042	5.000
404.064	3.300
404.087	4.900
404.109	6.800
404.132	6.400
404.154	6.200
404.176	5.900
404.199	3.700
404.221	3.600
404.243	5.300
404.266	4.600
404.288	4.000
404.311	5.200
404.333	5.000
404.355	4.300
404.378	3.900
404.400	4.400
404.423	3.000
404.445	4.000
404.467	4.700
404.490	5.600
404.512	5.300
404.534	5.200
404.557	5.300
404.579	5.200
404.602	5.300
404.624	4.900
404.646	3.900
404.669	3.700
404.691	4.800
404.713	5.400
404.736	4.600
404.758	4.200
404.781	3.700
404.803	4.700
404.825	4.900
404.848	3.200
404.870	4.200
404.892	4.600
404.915	6.000
404.937	3.800
404.960	6.400
404.982	4.900
405.004	4.800
405.027	5.000
405.049	4.500
405.072	3.900
405.094	3.500
405.116	4.100
405.139	5.600
405.161	5.300
405.183	3.900
405.206	3.000
405.228	4.500
405.251	6.600
405.273	4.500
405.295	5.900
405.318	5.700
405.340	4.300
405.362	4.000
405.385	5.200
405.407	3.700
405.430	5.100
405.452	3.700
405.474	4.000
405.497	3.500
405.519	3.900
405.541	4.400
405.564	3.800
405.586	3.700
405.609	4.000
405.631	3.100
405.653	2.900
405.676	4.500
405.698	4.500
405.720	2.900
405.743	3.500
405.765	3.400
405.788	4.700
405.810	4.300
405.832	4.300
405.855	3.500
405.877	4.100
405.899	3.600
405.922	3.100
405.944	3.100
405.967	4.500
405.989	3.800
406.011	4.800
406.034	3.400
406.056	4.800
406.078	3.700
406.101	5.200
406.123	5.300
406.146	5.400
406.168	4.200
406.190	5.000
406.213	5.300
406.235	4.700
406.258	3.900
406.280	4.000
406.302	3.400
406.325	4.000
406.347	4.600
406.369	3.400
406.392	3.700
406.414	4.100
406.437	3.000
406.459	3.900
406.481	3.700
406.504	4.400
406.526	3.500
406.548	3.600
406.571	3.500
406.593	3.400
406.616	3.400
406.638	3.700
406.660	4.200
406.683	4.200
406.705	3.900
406.727	3.200
406.750	3.400
406.772	4.000
406.795	3.600
406.817	4.700
406.839	4.000
406.862	3.900
406.884	3.300
406.906	2.500
406.929	3.400
406.951	3.200
406.974	3.200
406.996	2.900
407.018	3.000
407.041	3.500
407.063	3.300
407.086	3.800
407.108	3.100
407.130	3.600
407.153	3.700
407.175	4.000
407.197	3.100
407.220	4.000
407.242	3.100
407.265	4.000
407.287	3.500
407.309	3.100
407.332	4.000
407.354	3.600
407.376	3.100
407.399	4.000
407.421	3.900
407.444	3.300
407.466	4.200
407.488	4.200
407.511	4.700
407.533	2.600
407.555	4.900
407.578	3.600
407.600	3.900
407.623	3.500
407.645	3.600
407.667	3.700
407.690	3.300
407.712	3.500
407.734	3.900
407.757	3.600
407.779	3.700
407.802	2.600
407.824	4.100
407.846	3.500
407.869	3.900
407.891	4.600
407.914	3.600
407.936	4.300
407.958	4.300
407.981	3.400
408.003	2.700
408.025	3.600
408.048	3.900
408.070	3.600
408.093	3.000
408.115	3.400
408.137	3.200
408.160	3.900
408.182	3.700
408.204	4.200
408.227	3.600
408.249	3.400
408.272	4.000
408.294	3.900
408.316	3.600
408.339	2.900
408.361	3.600
408.383	3.000
408.406	4.700
408.428	4.000
408.451	3.900
408.473	3.900
408.495	4.200
408.518	3.900
408.540	3.200
408.562	3.700
408.585	4.200
408.607	3.800
408.630	3.700
408.652	3.900
408.674	3.700
408.697	4.400
408.719	3.800
408.741	3.300
408.764	4.000
408.786	3.800
408.809	2.800
408.831	3.800
408.853	4.200
408.876	3.600
408.898	3.100
408.921	5.200
408.943	3.400
408.965	3.900
408.988	2.200
409.010	3.500
409.032	2.900
409.055	4.600
409.077	4.700
409.100	3.700
409.122	3.400
409.144	3.700
409.167	3.400
409.189	3.400
409.211	3.900
409.234	4.400
409.256	4.100
409.279	4.200
409.301	3.500
409.323	3.500
409.346	4.400
409.368	3.800
409.390	3.300
409.413	4.200
409.435	3.100
