386.542	0.900
386.565	0.300
386.587	0.900
386.610	2.100
386.632	0.500
386.654	1.700
386.677	1.700
386.699	1.400
386.721	1.200
386.744	0.900
386.766	0.700
386.789	1.400
386.811	1.100
386.833	0.900
386.856	1.200
386.878	0.200
386.900	0.600
386.923	0.700
386.945	1.600
386.968	0.900
386.990	0.700
387.012	1.100
387.035	1.400
387.057	0.300
387.079	0.900
387.102	1.400
387.124	1.700
387.147	1.300
387.169	1.500
387.191	1.300
387.214	1.600
387.236	1.200
387.259	-0.100
387.281	1.000
387.303	1.100
387.326	1.500
387.348	1.100
387.370	2.000
387.393	1.200
387.415	1.200
387.438	1.100
387.460	0.700
387.482	0.900
387.505	1.700
387.527	1.500
387.549	0.700
387.572	0.700
387.594	0.500
387.617	0.400
387.639	1.800
387.661	0.500
387.684	1.200
387.706	1.000
387.728	2.300
387.751	2.200
387.773	1.000
387.796	1.200
387.818	1.500
387.840	1.100
387.863	1.400
387.885	1.400
387.907	1.800
387.930	0.800
387.952	0.800
387.975	0.900
387.997	2.000
388.019	0.800
388.042	0.400
388.064	1.200
388.086	1.500
388.109	0.500
388.131	1.300
388.154	0.800
388.176	0.800
388.198	1.600
388.221	1.000
388.243	0.700
388.266	0.800
388.288	1.200
388.310	0.800
388.333	0.800
388.355	1.700
388.377	0.800
388.400	1.100
388.422	1.500
388.445	1.800
388.467	1.300
388.489	0.900
388.512	1.400
388.534	2.000
388.556	1.500
388.579	0.700
388.601	1.600
388.624	1.800
388.646	0.900
388.668	0.800
388.691	1.500
388.713	1.500
388.735	1.200
388.758	1.300
388.780	1.000
388.803	0.800
388.825	1.700
388.847	1.400
388.870	1.300
388.892	0.500
388.914	1.300
388.937	1.100
388.959	0.300
388.982	1.100
389.004	1.700
389.026	1.800
389.049	1.400
389.071	0.700
389.094	1.300
389.116	1.800
389.138	1.600
389.161	1.300
389.183	1.500
389.205	1.700
389.228	1.600
389.250	1.100
389.273	1.400
389.295	1.600
389.317	1.400
389.340	1.500
389.362	-0.100
389.384	0.200
389.407	0.600
389.429	1.000
389.452	0.900
389.474	1.400
389.496	1.400
389.519	1.200
389.541	1.200
389.563	0.600
389.586	1.900
389.608	0.900
389.631	1.000
389.653	1.800
389.675	2.400
389.698	1.700
389.720	0.900
389.742	1.600
389.765	2.000
389.787	1.800
389.810	1.000
389.832	1.400
389.854	1.300
389.877	0.700
389.899	0.300
389.922	0.500
389.944	1.600
389.966	2.000
389.989	0.900
390.011	1.000
390.033	0.100
390.056	1.200
390.078	1.000
390.101	1.500
390.123	0.500
390.145	1.700
390.168	1.300
390.190	1.500
390.212	2.100
390.235	1.300
390.257	1.300
390.280	1.400
390.302	1.100
390.324	-0.100
390.347	1.700
390.369	1.200
390.391	1.300
390.414	1.200
390.436	0.400
390.459	1.100
390.481	1.800
390.503	1.600
390.526	1.800
390.548	1.800
390.570	1.400
390.593	1.000
390.615	1.300
390.638	1.400
390.660	1.000
390.682	2.100
390.705	1.400
390.727	1.200
390.749	1.800
390.772	1.400
390.794	1.300
390.817	1.000
390.839	1.600
390.861	1.500
390.884	1.300
390.906	1.800
390.928	2.200
390.951	1.700
390.973	1.700
390.996	1.200
391.018	0.000
391.040	1.800
391.063	0.400
391.085	1.400
391.108	2.000
391.130	1.400
391.152	1.500
391.175	0.700
391.197	1.200
391.219	0.900
391.242	1.200
391.264	0.500
391.287	0.600
391.309	1.200
391.331	0.900
391.354	1.200
391.376	1.300
391.398	1.800
391.421	1.000
391.443	1.100
391.466	0.900
391.488	1.600
391.510	1.200
391.533	1.700
391.555	1.400
391.577	2.400
391.600	1.200
391.622	0.900
391.645	1.100
391.667	1.400
391.689	1.000
391.712	0.700
391.734	1.300
391.757	1.500
391.779	1.900
391.801	1.500
391.824	0.900
391.846	2.800
391.868	1.800
391.891	1.200
391.913	1.300
391.936	1.600
391.958	2.200
391.980	2.500
392.003	0.900
392.025	2.100
392.047	1.600
392.070	2.300
392.092	0.800
392.115	2.300
392.137	1.600
392.159	2.200
392.182	2.100
392.204	1.700
392.226	1.600
392.249	1.300
392.271	1.500
392.294	4.900
392.316	4.100
392.338	1.000
392.361	2.100
392.383	2.100
392.405	3.000
392.428	2.200
392.450	1.900
392.473	1.300
392.495	2.500
392.517	8.800
392.540	13.200
392.562	5.100
392.585	1.500
392.607	2.000
392.629	3.400
392.652	4.900
392.674	2.300
392.696	2.500
392.719	3.500
392.741	13.500
392.764	24.400
392.786	10.900
392.808	2.300
392.831	2.100
392.853	4.500
392.875	7.800
392.898	5.300
392.920	2.300
392.943	1.900
392.965	13.500
392.987	39.100
393.010	26.600
393.032	6.100
393.054	1.700
393.077	2.300
393.099	8.700
393.122	8.800
393.144	2.100
393.166	2.200
393.189	8.400
393.211	37.800
393.233	43.400
393.256	11.400
393.278	1.800
393.301	2.600
393.323	8.900
393.345	11.900
393.368	4.200
393.390	1.400
393.412	3.100
393.435	23.400
393.457	44.000
393.480	18.200
393.502	3.200
393.524	1.300
393.547	3.900
393.569	9.500
393.592	6.000
393.614	1.600
393.636	1.800
393.659	8.800
393.681	31.700
393.703	24.600
393.726	4.500
393.748	1.300
393.771	1.600
393.793	4.300
393.815	6.500
393.838	3.100
393.860	0.500
393.882	2.900
393.905	24.100
393.927	34.500
393.950	10.000
393.972	2.000
393.994	2.700
394.017	10.000
394.039	16.400
394.061	9.800
394.084	2.100
394.106	5.700
394.129	68.300
394.151	216.500
394.173	148.200
394.196	22.400
394.218	3.900
394.240	22.800
394.263	110.500
394.285	113.900
394.308	29.000
394.330	8.700
394.352	89.100
394.375	616.200
394.397	1039.400
394.419	365.400
394.442	30.000
394.464	8.900
394.487	107.900
394.509	287.300
394.531	166.900
394.554	19.800
394.576	6.100
394.599	150.900
394.621	657.700
394.643	610.800
394.666	110.800
394.688	-0.900
394.710	-3.400
394.733	39.900
394.755	71.700
394.778	12.800
394.800	-12.900
394.822	-10.500
394.845	71.400
394.867	202.800
394.889	107.300
394.912	0.400
394.934	-12.400
394.957	-3.600
394.979	22.400
395.001	18.300
395.024	-7.700
395.046	-12.400
395.068	4.200
395.091	116.100
395.113	180.100
395.136	46.500
395.158	-10.700
395.180	-9.600
395.203	7.300
395.225	37.100
395.247	12.400
395.270	-6.800
395.292	-9.000
395.315	31.800
395.337	175.600
395.359	158.100
395.382	23.100
395.404	-9.500
395.427	-8.700
395.449	24.700
395.471	45.800
395.494	8.800
395.516	-7.600
395.538	-2.400
395.561	89.700
395.583	286.600
395.606	176.800
395.628	15.600
395.650	-5.400
395.673	5.600
395.695	63.500
395.717	73.400
395.740	13.500
395.762	-1.400
395.785	17.900
395.807	194.800
395.829	413.800
395.852	178.300
395.874	17.100
395.896	-1.600
395.919	16.900
395.941	72.900
395.964	57.500
395.986	5.700
396.008	-1.400
396.031	33.600
396.053	241.700
396.075	388.700
396.098	135.500
396.120	9.400
396.143	2.400
396.165	43.100
396.187	135.200
396.210	88.400
396.232	13.000
396.255	4.900
396.277	62.400
396.299	340.200
396.322	458.800
396.344	130.800
396.366	5.200
396.389	1.100
396.411	28.900
396.434	86.200
396.456	42.100
396.478	-0.300
396.501	-1.400
396.523	53.900
396.545	288.600
396.568	313.400
396.590	67.000
396.613	-5.000
396.635	-7.900
396.657	21.300
396.680	55.300
396.702	22.300
396.724	-3.300
396.747	-10.800
396.769	27.300
396.792	147.000
396.814	144.900
396.836	18.600
396.859	-11.200
396.881	-9.700
396.903	0.500
396.926	14.800
396.948	-3.700
396.971	-17.000
396.993	-15.200
397.015	-4.900
397.038	49.000
397.060	41.100
397.082	-10.700
397.105	-24.000
397.127	-25.600
397.150	-19.600
397.172	-15.200
397.194	-25.100
397.217	-27.200
397.239	-28.700
397.262	-22.800
397.284	-18.900
397.306	-34.100
397.329	-68.300
397.351	-113.200
397.373	-137.400
397.396	-161.800
397.418	-196.800
397.441	-228.700
397.463	-302.800
397.485	-354.200
397.508	-385.700
397.530	-428.900
397.552	-474.100
397.575	-484.600
397.597	-487.600
397.620	-530.200
397.642	-586.700
397.664	-641.900
397.687	-700.100
397.709	-679.000
397.731	-688.600
397.754	-830.400
397.776	-1029.700
397.799	-1199.600
397.821	-1171.800
397.843	-1319.600
397.866	-1738.100
397.888	-2509.800
397.910	-31.700
397.933	0.000
397.955	0.000
397.978	0.000
398.000	0.000
398.022	0.000
398.045	-2021.700
398.067	-1533.600
398.090	-1214.500
398.112	-1070.000
398.134	-880.500
398.157	-643.700
398.179	-508.900
398.201	-436.400
398.224	-392.900
398.246	-323.700
398.269	-261.300
398.291	-249.300
398.313	-236.200
398.336	-215.100
398.358	-169.800
398.380	-160.700
398.403	-148.300
398.425	-156.000
398.448	-130.300
398.470	-130.900
398.492	-119.300
398.515	-109.300
398.537	-110.600
398.559	-115.200
398.582	-96.700
398.604	-82.000
398.627	-51.500
398.649	-11.600
398.671	-21.700
398.694	-30.300
398.716	-27.300
398.738	-24.700
398.761	-19.700
398.783	-13.000
398.806	-18.200
398.828	-17.300
398.850	-17.600
398.873	16.400
398.895	97.100
398.918	65.000
398.940	-4.600
398.962	-14.900
398.985	-11.800
399.007	11.000
399.029	30.100
399.052	6.100
399.074	-7.400
399.097	-0.300
399.119	73.600
399.141	293.700
399.164	252.100
399.186	42.500
399.208	-3.200
399.231	1.200
399.253	49.700
399.276	107.800
399.298	45.400
399.320	3.100
399.343	6.100
399.365	137.000
399.387	578.100
399.410	592.000
399.432	138.300
399.455	9.400
399.477	6.800
399.499	73.800
399.522	158.800
399.544	85.700
399.566	12.300
399.589	15.200
399.611	143.500
399.634	671.600
399.656	814.300
399.678	231.900
399.701	24.700
399.723	14.800
399.745	96.000
399.768	253.900
399.790	175.300
399.813	34.700
399.835	13.300
399.857	99.400
399.880	531.900
399.902	791.700
399.925	285.900
399.947	34.600
399.969	15.300
399.992	49.600
400.014	154.500
400.036	132.300
400.059	28.900
400.081	10.900
400.104	67.800
400.126	420.000
400.148	821.400
400.171	380.800
400.193	47.700
400.215	5.100
400.238	41.500
400.260	156.900
400.283	169.100
400.305	43.600
400.327	5.900
400.350	41.100
400.372	291.700
400.394	656.900
400.417	379.100
400.439	53.700
400.462	-0.500
400.484	17.100
400.506	88.000
400.529	115.600
400.551	35.300
400.573	-1.800
400.596	19.600
400.618	166.500
400.641	469.700
400.663	356.500
400.685	62.300
400.708	-0.900
400.730	8.700
400.753	71.400
400.775	110.400
400.797	43.200
400.820	1.200
400.842	9.100
400.864	126.800
400.887	404.500
400.909	380.500
400.932	89.500
400.954	-0.700
400.976	1.700
400.999	51.100
401.021	105.500
401.043	55.700
401.066	4.400
401.088	12.400
401.111	135.200
401.133	450.700
401.155	492.900
401.178	156.100
401.200	11.100
401.222	20.600
401.245	92.700
401.267	187.800
401.290	124.500
401.312	29.300
401.334	49.500
401.357	349.600
401.379	1214.200
401.401	1619.000
401.424	667.900
401.446	96.000
401.469	65.500
401.491	289.500
401.513	634.700
401.536	512.200
401.558	137.700
401.581	75.500
401.603	450.300
401.625	1709.400
401.648	2588.700
401.670	1275.100
401.692	200.600
401.715	39.700
401.737	103.400
401.760	266.900
401.782	275.600
401.804	91.900
401.827	20.700
401.849	44.300
401.871	186.900
401.894	382.500
401.916	259.200
401.939	54.100
401.961	9.600
401.983	12.400
402.006	25.400
402.028	33.300
402.050	17.600
402.073	7.500
402.095	9.900
402.118	36.300
402.140	79.600
402.162	66.300
402.185	19.800
402.207	5.700
402.229	7.700
402.252	16.700
402.274	21.200
402.297	11.400
402.319	6.600
402.341	10.300
402.364	30.200
402.386	76.600
402.408	78.000
402.431	29.000
402.453	6.000
402.476	7.400
402.498	16.000
402.520	25.700
402.543	17.600
402.565	7.600
402.588	8.600
402.610	31.600
402.632	82.800
402.655	101.600
402.677	44.600
402.699	10.000
402.722	7.900
402.744	16.200
402.767	27.800
402.789	23.500
402.811	9.600
402.834	8.600
402.856	29.000
402.878	79.400
402.901	112.400
402.923	59.300
402.946	13.900
402.968	7.400
402.990	12.900
403.013	23.300
403.035	24.000
403.057	10.600
403.080	7.500
403.102	20.600
403.125	58.600
403.147	92.600
403.169	59.200
403.192	15.700
403.214	6.600
403.236	10.600
403.259	17.900
403.281	18.800
403.304	10.300
403.326	6.000
403.348	13.200
403.371	31.800
403.393	59.200
403.415	44.400
403.438	15.500
403.460	4.800
403.483	7.600
403.505	11.300
403.527	14.000
403.550	8.700
403.572	6.500
403.595	7.800
403.617	17.800
403.639	30.400
403.662	27.400
403.684	9.900
403.706	6.200
403.729	7.100
403.751	6.800
403.774	8.600
403.796	7.400
403.818	6.000
403.841	5.900
403.863	9.200
403.885	14.300
403.908	12.800
403.930	9.900
403.953	4.900
403.975	5.100
403.997	5.300
404.020	6.600
404.042	6.200
404.064	4.300
404.087	6.400
404.109	6.900
404.132	8.000
404.154	8.000
404.176	6.400
404.199	5.300
404.221	5.300
404.243	5.200
404.266	6.300
404.288	5.000
404.311	6.500
404.333	4.900
404.355	5.000
404.378	5.800
404.400	6.000
404.423	4.500
404.445	4.700
404.467	5.300
404.490	6.700
404.512	5.900
404.534	6.000
404.557	5.300
404.579	5.900
404.602	6.400
404.624	5.200
404.646	5.500
404.669	4.700
404.691	5.200
404.713	7.000
404.736	4.800
404.758	5.000
404.781	4.500
404.803	5.000
404.825	5.900
404.848	5.400
404.870	6.000
404.892	5.100
404.915	6.500
404.937	6.100
404.960	6.100
404.982	6.400
405.004	5.500
405.027	5.300
405.049	5.200
405.072	5.100
405.094	5.000
405.116	5.400
405.139	4.600
405.161	5.800
405.183	5.200
405.206	4.100
405.228	5.000
405.251	5.400
405.273	6.100
405.295	6.400
405.318	5.400
405.340	5.100
405.362	5.700
405.385	5.400
405.407	4.900
405.430	6.200
405.452	3.800
405.474	4.900
405.497	4.600
405.519	5.100
405.541	4.400
405.564	3.200
405.586	4.300
405.609	4.900
405.631	3.900
405.653	4.000
405.676	4.600
405.698	5.200
405.720	4.400
405.743	4.400
405.765	4.800
405.788	4.900
405.810	4.700
405.832	4.700
405.855	4.000
405.877	5.500
405.899	5.000
405.922	4.300
405.944	3.600
405.967	5.500
405.989	5.100
406.011	5.200
406.034	3.600
406.056	5.100
406.078	5.200
406.101	5.700
406.123	5.600
406.146	6.000
406.168	6.200
406.190	5.800
406.213	5.600
406.235	5.300
406.258	4.700
406.280	4.700
406.302	4.900
406.325	4.500
406.347	4.700
406.369	4.000
406.392	4.100
406.414	4.600
406.437	3.700
406.459	4.200
406.481	4.000
406.504	4.300
406.526	4.400
406.548	4.300
406.571	4.800
406.593	4.600
406.616	4.600
406.638	4.800
406.660	4.500
406.683	3.900
406.705	4.000
406.727	4.200
406.750	4.900
406.772	4.300
406.795	3.900
406.817	4.000
406.839	4.700
406.862	4.700
406.884	4.100
406.906	4.400
406.929	4.300
406.951	3.000
406.974	3.600
406.996	3.700
407.018	4.200
407.041	3.400
407.063	4.500
407.086	3.800
407.108	3.900
407.130	4.000
407.153	4.100
407.175	5.100
407.197	4.300
407.220	4.300
407.242	4.300
407.265	4.200
407.287	4.200
407.309	4.400
407.332	3.800
407.354	4.900
407.376	4.100
407.399	4.500
407.421	4.400
407.444	4.200
407.466	4.800
407.488	4.200
407.511	5.100
407.533	3.900
407.555	4.800
407.578	4.100
407.600	4.800
407.623	4.700
407.645	3.700
407.667	4.200
407.690	4.000
407.712	3.900
407.734	4.700
407.757	3.800
407.779	4.200
407.802	4.400
407.824	4.100
407.846	4.000
407.869	4.300
407.891	4.500
407.914	4.300
407.936	4.700
407.958	4.300
407.981	4.900
408.003	3.900
408.025	4.700
408.048	3.900
408.070	4.500
408.093	4.100
408.115	4.900
408.137	4.200
408.160	4.300
408.182	4.200
408.204	4.600
408.227	4.100
408.249	3.800
408.272	4.800
408.294	5.100
408.316	4.700
408.339	3.600
408.361	3.900
408.383	4.300
408.406	4.100
408.428	5.200
408.451	4.200
408.473	4.600
408.495	4.500
408.518	4.700
408.540	4.400
408.562	4.700
408.585	4.700
408.607	4.100
408.630	4.400
408.652	4.800
408.674	3.600
408.697	4.600
408.719	4.000
408.741	3.900
408.764	4.200
408.786	5.300
408.809	4.500
408.831	4.800
408.853	4.600
408.876	4.700
408.898	3.200
408.921	5.300
408.943	5.500
408.965	5.200
408.988	2.700
409.010	4.500
409.032	4.200
409.055	4.500
409.077	4.600
409.100	4.700
409.122	5.100
409.144	4.400
409.167	4.000
409.189	4.800
409.211	4.700
409.234	4.800
409.256	5.200
409.279	4.700
409.301	5.200
409.323	4.700
409.346	4.200
409.368	5.600
409.390	4.500
409.413	4.400
409.435	4.800
