386.542	-0.300
386.565	-0.500
386.587	0.000
386.610	-0.700
386.632	0.100
386.654	0.000
386.677	1.400
386.699	-0.500
386.721	1.300
386.744	0.500
386.766	0.400
386.789	-0.400
386.811	1.100
386.833	1.400
386.856	-1.000
386.878	0.500
386.900	1.900
386.923	1.700
386.945	-0.600
386.968	0.300
386.990	-0.400
387.012	1.500
387.035	-1.100
387.057	-1.100
387.079	0.300
387.102	1.500
387.124	0.600
387.147	-1.500
387.169	1.500
387.191	0.700
387.214	1.800
387.236	1.700
387.259	0.900
387.281	1.600
387.303	1.000
387.326	-0.100
387.348	0.400
387.370	0.100
387.393	1.500
387.415	-0.900
387.438	4.200
387.460	0.600
387.482	-0.600
387.505	1.000
387.527	2.400
387.549	-2.200
387.572	0.800
387.594	2.300
387.617	1.100
387.639	0.900
387.661	-0.100
387.684	-0.600
387.706	0.300
387.728	0.300
387.751	1.700
387.773	0.000
387.796	1.200
387.818	1.000
387.840	-0.600
387.863	-0.900
387.885	-0.500
387.907	1.800
387.930	1.200
387.952	-0.600
387.975	-1.000
387.997	1.700
388.019	1.000
388.042	3.100
388.064	0.900
388.086	-0.400
388.109	0.300
388.131	0.200
388.154	2.100
388.176	2.300
388.198	0.600
388.221	0.100
388.243	-0.200
388.266	-0.300
388.288	-0.200
388.310	-1.300
388.333	0.100
388.355	1.800
388.377	1.800
388.400	1.200
388.422	1.900
388.445	2.400
388.467	0.700
388.489	1.900
388.512	0.200
388.534	0.100
388.556	0.600
388.579	1.000
388.601	1.100
388.624	1.400
388.646	1.100
388.668	0.600
388.691	0.800
388.713	1.500
388.735	1.500
388.758	2.000
388.780	0.600
388.803	2.100
388.825	2.000
388.847	0.400
388.870	0.500
388.892	1.800
388.914	2.700
388.937	1.600
388.959	1.400
388.982	3.000
389.004	0.800
389.026	2.600
389.049	1.700
389.071	1.100
389.094	0.800
389.116	1.000
389.138	1.000
389.161	0.200
389.183	1.200
389.205	3.400
389.228	0.700
389.250	1.100
389.273	0.400
389.295	1.100
389.317	2.000
389.340	1.900
389.362	1.300
389.384	2.300
389.407	2.500
389.429	1.400
389.452	2.100
389.474	1.600
389.496	2.900
389.519	4.200
389.541	6.900
389.563	5.700
389.586	4.300
389.608	2.300
389.631	3.800
389.653	5.300
389.675	6.600
389.698	8.700
389.720	6.700
389.742	6.000
389.765	5.400
389.787	6.800
389.810	11.300
389.832	12.700
389.854	13.500
389.877	9.300
389.899	7.500
389.922	13.800
389.944	19.000
389.966	24.200
389.989	19.700
390.011	15.000
390.033	9.800
390.056	17.600
390.078	28.000
390.101	34.500
390.123	29.700
390.145	15.800
390.168	13.300
390.190	21.500
390.212	39.500
390.235	49.800
390.257	42.900
390.280	21.900
390.302	15.500
390.324	27.700
390.347	47.300
390.369	62.300
390.391	52.800
390.414	27.400
390.436	15.600
390.459	25.300
390.481	45.400
390.503	65.100
390.526	61.800
390.548	34.100
390.570	17.800
390.593	23.900
390.615	46.900
390.638	68.900
390.660	77.200
390.682	47.500
390.705	17.700
390.727	21.500
390.749	37.200
390.772	63.200
390.794	74.500
390.817	50.200
390.839	20.900
390.861	17.900
390.884	30.600
390.906	52.400
390.928	67.800
390.951	54.800
390.973	27.400
390.996	16.000
391.018	23.000
391.040	43.100
391.063	62.400
391.085	60.600
391.108	30.700
391.130	17.600
391.152	19.600
391.175	32.700
391.197	51.400
391.219	63.700
391.242	47.200
391.264	20.500
391.287	13.000
391.309	20.300
391.331	36.100
391.354	50.000
391.376	46.600
391.398	22.500
391.421	11.900
391.443	15.500
391.466	26.300
391.488	42.100
391.510	47.500
391.533	32.700
391.555	16.500
391.577	10.300
391.600	18.700
391.622	34.500
391.645	43.300
391.667	42.900
391.689	26.700
391.712	11.300
391.734	8.600
391.757	20.400
391.779	33.700
391.801	37.900
391.824	32.300
391.846	17.400
391.868	8.700
391.891	13.400
391.913	25.000
391.936	34.200
391.958	41.100
391.980	25.700
392.003	11.600
392.025	8.100
392.047	11.400
392.070	16.900
392.092	25.000
392.115	24.400
392.137	16.900
392.159	7.400
392.182	5.900
392.204	8.400
392.226	12.500
392.249	19.500
392.271	15.700
392.294	11.300
392.316	8.400
392.338	6.000
392.361	6.800
392.383	12.600
392.405	17.800
392.428	16.000
392.450	12.700
392.473	4.000
392.495	3.400
392.517	10.000
392.540	11.200
392.562	10.400
392.585	9.200
392.607	8.000
392.629	7.300
392.652	1.700
392.674	6.900
392.696	9.900
392.719	10.600
392.741	7.800
392.764	6.000
392.786	4.700
392.808	7.700
392.831	3.900
392.853	8.100
392.875	9.600
392.898	9.800
392.920	4.300
392.943	3.700
392.965	5.300
392.987	6.900
393.010	10.000
393.032	8.500
393.054	8.500
393.077	3.900
393.099	5.800
393.122	6.500
393.144	4.700
393.166	6.700
393.189	8.200
393.211	8.200
393.233	7.000
393.256	5.700
393.278	6.400
393.301	5.200
393.323	5.400
393.345	5.800
393.368	7.100
393.390	4.500
393.412	6.800
393.435	6.300
393.457	3.900
393.480	6.700
393.502	6.400
393.524	5.100
393.547	5.300
393.569	6.000
393.592	7.100
393.614	7.000
393.636	6.800
393.659	6.700
393.681	8.500
393.703	6.300
393.726	5.300
393.748	6.600
393.771	8.400
393.793	7.100
393.815	6.300
393.838	7.400
393.860	7.800
393.882	3.800
393.905	6.600
393.927	5.000
393.950	9.300
393.972	8.500
393.994	11.800
394.017	11.800
394.039	15.000
394.061	13.100
394.084	12.400
394.106	13.200
394.129	15.100
394.151	17.800
394.173	17.600
394.196	17.300
394.218	20.300
394.240	16.600
394.263	17.500
394.285	19.600
394.308	21.900
394.330	31.700
394.352	24.600
394.375	28.600
394.397	29.200
394.419	27.200
394.442	37.200
394.464	43.500
394.487	38.900
394.509	35.300
394.531	41.800
394.554	46.000
394.576	46.200
394.599	52.000
394.621	42.800
394.643	42.900
394.666	46.300
394.688	41.600
394.710	41.200
394.733	50.700
394.755	44.500
394.778	48.600
394.800	45.000
394.822	58.900
394.845	54.900
394.867	48.400
394.889	49.800
394.912	41.800
394.934	50.000
394.957	56.200
394.979	65.000
395.001	72.400
395.024	91.500
395.046	82.800
395.068	88.200
395.091	81.800
395.113	86.600
395.136	80.300
395.158	81.400
395.180	83.400
395.203	73.300
395.225	73.700
395.247	73.700
395.270	78.600
395.292	65.400
395.315	70.000
395.337	60.000
395.359	55.400
395.382	50.300
395.404	41.900
395.427	43.200
395.449	42.700
395.471	44.200
395.494	43.900
395.516	42.100
395.538	37.600
395.561	31.300
395.583	29.600
395.606	25.900
395.628	34.000
395.650	27.100
395.673	36.100
395.695	33.200
395.717	27.300
395.740	24.000
395.762	23.800
395.785	35.100
395.807	34.500
395.829	30.700
395.852	44.600
395.874	34.600
395.896	27.300
395.919	21.700
395.941	22.300
395.964	27.300
395.986	38.600
396.008	55.200
396.031	49.300
396.053	34.400
396.075	28.900
396.098	26.000
396.120	26.000
396.143	34.200
396.165	51.800
396.187	69.600
396.210	59.900
396.232	45.200
396.255	32.200
396.277	31.900
396.299	30.600
396.322	50.500
396.344	77.300
396.366	94.100
396.389	84.100
396.411	51.400
396.434	31.200
396.456	35.000
396.478	48.300
396.501	77.400
396.523	121.400
396.545	139.700
396.568	108.900
396.590	64.400
396.613	42.600
396.635	42.400
396.657	57.300
396.680	97.100
396.702	144.300
396.724	154.300
396.747	110.500
396.769	63.300
396.792	43.300
396.814	45.800
396.836	56.000
396.859	99.400
396.881	144.300
396.903	148.000
396.926	106.900
396.948	73.900
396.971	54.900
396.993	58.900
397.015	77.000
397.038	100.400
397.060	141.900
397.082	144.300
397.105	106.400
397.127	68.800
397.150	51.900
397.172	65.000
397.194	63.700
397.217	68.100
397.239	79.400
397.262	79.700
397.284	69.600
397.306	113.300
397.329	168.100
397.351	246.300
397.373	320.200
397.396	352.400
397.418	426.700
397.441	517.000
397.463	548.500
397.485	599.000
397.508	660.000
397.530	736.200
397.552	884.000
397.575	1180.000
397.597	1516.900
397.620	1835.900
397.642	2149.100
397.664	2699.600
397.687	3260.200
397.709	3508.900
397.731	3614.800
397.754	3042.700
397.776	-502.300
397.799	0.000
397.821	0.000
397.843	0.000
397.866	0.000
397.888	0.000
397.910	0.000
397.933	0.000
397.955	0.000
397.978	0.000
398.000	0.000
398.022	0.000
398.045	0.000
398.067	0.000
398.090	4047.000
398.112	6548.800
398.134	3248.000
398.157	2164.900
398.179	1853.500
398.201	1390.700
398.224	1163.200
398.246	981.900
398.269	809.800
398.291	653.000
398.313	620.500
398.336	616.900
398.358	610.300
398.380	548.300
398.403	518.000
398.425	459.600
398.448	427.000
398.470	384.700
398.492	379.600
398.515	398.300
398.537	468.500
398.559	556.200
398.582	614.500
398.604	501.000
398.627	377.300
398.649	296.300
398.671	279.000
398.694	331.000
398.716	542.900
398.738	861.900
398.761	984.500
398.783	674.700
398.806	309.200
398.828	171.300
398.850	201.000
398.873	453.900
398.895	1136.700
398.918	2064.000
398.940	2347.300
398.962	1481.500
398.985	575.800
399.007	228.000
399.029	250.500
399.052	621.200
399.074	1605.100
399.097	2916.800
399.119	3283.200
399.141	1972.900
399.164	691.800
399.186	244.600
399.208	252.200
399.231	620.900
399.253	1690.600
399.276	3261.900
399.298	3836.600
399.320	2363.600
399.343	827.700
399.365	259.000
399.387	244.300
399.410	605.400
399.432	1648.300
399.455	3204.100
399.477	3776.100
399.499	2319.300
399.522	803.200
399.544	224.700
399.566	170.600
399.589	364.500
399.611	975.800
399.634	1912.800
399.656	2271.100
399.678	1341.000
399.701	454.600
399.723	142.900
399.745	122.900
399.768	243.500
399.790	642.300
399.813	1341.100
399.835	1664.000
399.857	1029.700
399.880	365.700
399.902	116.000
399.925	84.500
399.947	161.300
399.969	421.700
399.992	872.800
400.014	1081.900
400.036	667.500
400.059	234.700
400.081	76.800
400.104	58.300
400.126	112.000
400.148	288.300
400.171	580.700
400.193	706.000
400.215	432.200
400.238	161.900
400.260	56.300
400.283	48.000
400.305	75.400
400.327	144.500
400.350	290.400
400.372	363.900
400.394	249.200
400.417	111.500
400.439	49.300
400.462	45.100
400.484	52.800
400.506	75.300
400.529	120.000
400.551	130.300
400.573	100.900
400.596	56.000
400.618	47.700
400.641	52.800
400.663	76.100
400.685	123.200
400.708	182.800
400.730	208.500
400.753	143.000
400.775	88.800
400.797	74.700
400.820	74.400
400.842	83.200
400.864	95.100
400.887	116.100
400.909	143.400
400.932	116.100
400.954	91.700
400.976	87.400
400.999	81.400
401.021	84.100
401.043	84.300
401.066	85.800
401.088	90.800
401.111	76.800
401.133	63.700
401.155	67.000
401.178	64.500
401.200	60.900
401.222	74.100
401.245	96.300
401.267	93.700
401.290	76.500
401.312	64.000
401.334	50.900
401.357	54.600
401.379	53.300
401.401	59.900
401.424	97.600
401.446	104.700
401.469	70.300
401.491	56.300
401.513	43.500
401.536	45.700
401.558	41.900
401.581	52.900
401.603	68.100
401.625	67.500
401.648	44.500
401.670	35.300
401.692	27.200
401.715	36.900
401.737	36.500
401.760	58.500
401.782	80.700
401.804	75.000
401.827	44.300
401.849	26.000
401.871	14.100
401.894	21.500
401.916	29.100
401.939	53.100
401.961	83.700
401.983	70.000
402.006	35.600
402.028	21.100
402.050	12.600
402.073	14.300
402.095	20.700
402.118	41.700
402.140	56.600
402.162	43.600
402.185	22.400
402.207	14.900
402.229	12.900
402.252	16.100
402.274	26.300
402.297	50.800
402.319	74.400
402.341	54.200
402.364	23.400
402.386	13.100
402.408	11.300
402.431	16.700
402.453	30.400
402.476	62.300
402.498	73.600
402.520	43.500
402.543	21.400
402.565	14.500
402.588	11.800
402.610	21.600
402.632	45.900
402.655	90.200
402.677	96.300
402.699	50.500
402.722	22.300
402.744	13.300
402.767	17.300
402.789	36.700
402.811	88.300
402.834	155.000
402.856	134.900
402.878	58.600
402.901	24.300
402.923	13.000
402.946	17.800
402.968	52.000
402.990	126.500
403.013	190.700
403.035	132.900
403.057	53.500
403.080	19.100
403.102	16.800
403.125	29.800
403.147	84.200
403.169	197.000
403.192	245.600
403.214	136.000
403.236	45.700
403.259	20.600
403.281	21.200
403.304	52.400
403.326	158.400
403.348	300.000
403.371	277.600
403.393	130.200
403.415	44.900
403.438	18.100
403.460	25.400
403.483	79.900
403.505	209.700
403.527	329.600
403.550	228.000
403.572	85.700
403.595	30.600
403.617	24.400
403.639	61.900
403.662	193.100
403.684	402.700
403.706	448.300
403.729	224.800
403.751	76.900
403.774	28.900
403.796	31.200
403.818	118.900
403.841	378.300
403.863	690.700
403.885	564.100
403.908	244.500
403.930	69.300
403.953	31.800
403.975	76.500
403.997	275.800
404.020	653.900
404.042	803.100
404.064	442.900
404.087	144.900
404.109	48.700
404.132	54.200
404.154	195.100
404.176	566.600
404.199	992.200
404.221	790.700
404.243	325.400
404.266	94.600
404.288	56.500
404.311	159.600
404.333	650.200
404.355	1549.100
404.378	1888.100
404.400	1057.600
404.423	342.600
404.445	96.000
404.467	108.400
404.490	429.300
404.512	1257.200
404.534	2064.100
404.557	1517.400
404.579	576.900
404.602	146.400
404.624	99.000
404.646	304.000
404.669	1013.100
404.691	2065.600
404.713	2064.300
404.736	962.100
404.758	276.200
404.781	97.000
404.803	185.900
404.825	748.800
404.848	1905.000
404.870	2564.900
404.892	1553.600
404.915	539.100
404.937	141.700
404.960	131.900
404.982	480.600
405.004	1417.000
405.027	2379.300
405.049	1804.900
405.072	733.300
405.094	210.400
405.116	149.300
405.139	541.200
405.161	1676.200
405.183	3168.200
405.206	2890.300
405.228	1312.300
405.251	382.300
405.273	151.700
405.295	400.600
405.318	1483.700
405.340	3212.500
405.362	3475.400
405.385	1763.700
405.407	551.600
405.430	181.500
405.452	375.700
405.474	1406.500
405.497	3248.900
405.519	3913.700
405.541	2155.300
405.564	717.400
405.586	219.000
405.609	333.600
405.631	1322.800
405.653	3352.000
405.676	4481.100
405.698	2722.000
405.720	957.100
405.743	272.000
405.765	416.100
405.788	1594.700
405.810	3877.500
405.832	5129.600
405.855	3088.300
405.877	1042.700
405.899	285.000
405.922	402.000
405.944	1510.500
405.967	3692.600
405.989	4952.000
406.011	3060.900
406.034	1091.300
406.056	308.100
406.078	394.300
406.101	1499.400
406.123	3697.800
406.146	4867.300
406.168	2977.200
406.190	1042.800
406.213	300.100
406.235	497.800
406.258	1738.100
406.280	3823.200
406.302	4543.800
406.325	2542.000
406.347	834.200
406.369	258.000
406.392	484.900
406.414	1508.100
406.437	3019.600
406.459	3180.800
406.481	1635.100
406.504	517.300
406.526	206.800
406.548	562.200
406.571	1599.800
406.593	2781.000
406.616	2436.700
406.638	1095.000
406.660	320.900
406.683	169.200
406.705	495.600
406.727	1244.100
406.750	1852.000
406.772	1329.600
406.795	518.200
406.817	146.100
406.839	147.300
406.862	446.900
406.884	977.500
406.906	1159.900
406.929	668.500
406.951	236.300
406.974	92.300
406.996	197.600
407.018	527.500
407.041	882.000
407.063	784.200
407.086	362.000
407.108	117.000
407.130	92.700
407.153	262.500
407.175	568.900
407.197	723.400
407.220	458.100
407.242	174.100
407.265	64.300
407.287	107.100
407.309	286.000
407.332	484.500
407.354	430.700
407.376	200.100
407.399	68.500
407.421	54.000
407.444	127.600
407.466	246.700
407.488	285.700
407.511	168.900
407.533	65.200
407.555	30.300
407.578	57.000
407.600	122.300
407.623	171.900
407.645	127.600
407.667	56.000
407.690	21.800
407.712	24.500
407.734	51.100
407.757	79.900
407.779	68.100
407.802	32.300
407.824	15.600
407.846	11.200
407.869	18.600
407.891	28.900
407.914	28.900
407.936	17.000
407.958	9.700
407.981	5.900
408.003	7.800
408.025	9.000
408.048	9.500
408.070	9.000
408.093	6.500
408.115	5.000
408.137	6.300
408.160	3.500
408.182	7.300
408.204	4.700
408.227	6.300
408.249	4.800
408.272	4.600
408.294	4.100
408.316	6.400
408.339	3.300
408.361	4.600
408.383	5.200
408.406	6.600
408.428	5.000
408.451	4.100
408.473	4.300
408.495	4.900
408.518	4.600
408.540	4.200
408.562	2.500
408.585	4.000
408.607	2.900
408.630	4.400
408.652	5.200
408.674	2.600
408.697	4.400
408.719	4.400
408.741	5.000
408.764	5.500
408.786	5.100
408.809	4.800
408.831	5.600
408.853	4.300
408.876	3.500
408.898	4.300
408.921	3.100
408.943	3.200
408.965	2.400
408.988	4.400
409.010	5.500
409.032	3.700
409.055	3.500
409.077	4.600
409.100	3.100
409.122	3.300
409.144	3.800
409.167	3.900
409.189	2.300
409.211	3.700
409.234	2.300
409.256	3.300
409.279	2.900
409.301	2.800
409.323	3.600
409.346	4.400
409.368	3.300
409.390	5.100
409.413	3.900
409.435	3.700
