386.542	-2.500
386.565	0.400
386.587	0.300
386.610	-2.200
386.632	-0.900
386.654	0.600
386.677	-1.100
386.699	-3.600
386.721	-0.700
386.744	-0.800
386.766	2.400
386.789	-3.400
386.811	-0.200
386.833	-3.200
386.856	-1.400
386.878	0.500
386.900	-0.600
386.923	-0.100
386.945	-2.200
386.968	-1.200
386.990	2.500
387.012	-1.800
387.035	-0.400
387.057	0.100
387.079	-0.300
387.102	-0.300
387.124	-0.300
387.147	-1.700
387.169	-0.200
387.191	1.600
387.214	3.200
387.236	2.300
387.259	2.200
387.281	-3.400
387.303	-0.400
387.326	-0.700
387.348	-2.400
387.370	0.200
387.393	0.800
387.415	-0.700
387.438	3.900
387.460	0.200
387.482	0.100
387.505	2.700
387.527	-2.600
387.549	3.100
387.572	2.600
387.594	0.100
387.617	-1.100
387.639	0.100
387.661	2.900
387.684	0.800
387.706	-0.900
387.728	0.700
387.751	2.900
387.773	2.400
387.796	3.800
387.818	1.600
387.840	2.300
387.863	1.300
387.885	1.200
387.907	1.800
387.930	-0.800
387.952	3.100
387.975	-1.500
387.997	3.000
388.019	0.700
388.042	4.400
388.064	4.500
388.086	5.000
388.109	5.200
388.131	6.000
388.154	2.100
388.176	2.800
388.198	4.100
388.221	4.500
388.243	7.200
388.266	8.300
388.288	6.500
388.310	5.500
388.333	5.600
388.355	5.800
388.377	6.500
388.400	4.900
388.422	7.700
388.445	8.900
388.467	4.900
388.489	6.700
388.512	8.500
388.534	6.900
388.556	9.600
388.579	10.000
388.601	5.500
388.624	10.500
388.646	9.900
388.668	10.900
388.691	7.200
388.713	11.800
388.735	9.200
388.758	7.500
388.780	12.200
388.803	10.100
388.825	13.700
388.847	10.300
388.870	11.200
388.892	13.200
388.914	13.900
388.937	13.800
388.959	11.700
388.982	16.600
389.004	13.000
389.026	14.200
389.049	16.700
389.071	16.800
389.094	16.000
389.116	13.700
389.138	17.400
389.161	17.500
389.183	18.900
389.205	14.000
389.228	15.600
389.250	18.800
389.273	16.000
389.295	17.500
389.317	19.200
389.340	18.300
389.362	18.000
389.384	22.300
389.407	23.500
389.429	16.400
389.452	22.200
389.474	24.400
389.496	20.700
389.519	25.700
389.541	23.100
389.563	18.800
389.586	21.000
389.608	23.800
389.631	22.600
389.653	21.700
389.675	21.900
389.698	22.000
389.720	22.900
389.742	25.800
389.765	26.100
389.787	27.700
389.810	21.700
389.832	25.800
389.854	24.700
389.877	25.500
389.899	28.900
389.922	26.800
389.944	26.100
389.966	26.300
389.989	31.000
390.011	29.700
390.033	30.400
390.056	29.300
390.078	31.200
390.101	28.800
390.123	28.600
390.145	28.300
390.168	34.500
390.190	27.900
390.212	31.300
390.235	35.100
390.257	26.000
390.280	30.800
390.302	34.300
390.324	27.900
390.347	33.000
390.369	34.900
390.391	37.100
390.414	32.300
390.436	30.900
390.459	37.200
390.481	41.000
390.503	29.600
390.526	34.100
390.548	38.000
390.570	37.200
390.593	36.200
390.615	34.400
390.638	35.600
390.660	37.900
390.682	42.600
390.705	37.300
390.727	41.600
390.749	38.900
390.772	44.600
390.794	38.000
390.817	41.600
390.839	39.400
390.861	49.700
390.884	36.200
390.906	44.300
390.928	46.400
390.951	38.300
390.973	48.300
390.996	46.100
391.018	47.700
391.040	43.700
391.063	44.700
391.085	45.100
391.108	48.400
391.130	46.600
391.152	52.800
391.175	47.900
391.197	47.400
391.219	49.500
391.242	45.900
391.264	49.700
391.287	51.300
391.309	49.900
391.331	53.800
391.354	52.500
391.376	49.700
391.398	49.400
391.421	59.800
391.443	48.900
391.466	56.200
391.488	50.300
391.510	54.300
391.533	54.900
391.555	55.000
391.577	58.700
391.600	50.700
391.622	57.300
391.645	54.800
391.667	56.600
391.689	55.300
391.712	58.000
391.734	59.100
391.757	69.300
391.779	53.300
391.801	60.200
391.824	62.300
391.846	66.100
391.868	67.400
391.891	58.300
391.913	69.200
391.936	55.100
391.958	65.500
391.980	64.200
392.003	70.100
392.025	60.200
392.047	67.200
392.070	62.500
392.092	72.000
392.115	66.600
392.137	67.900
392.159	69.400
392.182	70.000
392.204	64.100
392.226	76.300
392.249	61.800
392.271	65.900
392.294	70.200
392.316	64.400
392.338	71.200
392.361	77.100
392.383	72.900
392.405	70.000
392.428	70.600
392.450	75.500
392.473	79.100
392.495	76.400
392.517	71.900
392.540	74.500
392.562	86.800
392.585	70.700
392.607	75.700
392.629	82.000
392.652	83.200
392.674	78.500
392.696	95.900
392.719	63.300
392.741	84.900
392.764	82.400
392.786	85.100
392.808	79.400
392.831	82.200
392.853	91.800
392.875	83.300
392.898	79.200
392.920	88.400
392.943	80.800
392.965	89.600
392.987	89.000
393.010	82.400
393.032	76.500
393.054	92.800
393.077	92.400
393.099	82.900
393.122	93.300
393.144	91.500
393.166	88.900
393.189	88.800
393.211	90.600
393.233	90.400
393.256	89.200
393.278	97.300
393.301	86.500
393.323	89.300
393.345	98.200
393.368	81.600
393.390	98.600
393.412	95.900
393.435	103.200
393.457	88.300
393.480	102.100
393.502	92.600
393.524	96.400
393.547	88.600
393.569	105.900
393.592	96.600
393.614	101.600
393.636	98.400
393.659	104.000
393.681	95.900
393.703	94.600
393.726	102.900
393.748	98.300
393.771	100.800
393.793	102.600
393.815	97.300
393.838	116.500
393.860	97.600
393.882	106.900
393.905	99.900
393.927	107.400
393.950	101.100
393.972	115.600
393.994	100.200
394.017	97.300
394.039	109.600
394.061	104.500
394.084	107.500
394.106	117.700
394.129	108.800
394.151	110.100
394.173	112.200
394.196	108.200
394.218	127.000
394.240	129.200
394.263	117.300
394.285	139.000
394.308	127.800
394.330	108.600
394.352	125.800
394.375	138.900
394.397	124.700
394.419	123.300
394.442	127.500
394.464	129.500
394.487	151.200
394.509	147.300
394.531	150.000
394.554	141.800
394.576	158.500
394.599	151.800
394.621	136.800
394.643	172.000
394.666	160.700
394.688	162.400
394.710	169.700
394.733	176.200
394.755	160.700
394.778	170.200
394.800	178.400
394.822	170.200
394.845	144.800
394.867	177.800
394.889	173.000
394.912	179.000
394.934	171.400
394.957	159.800
394.979	184.300
395.001	174.800
395.024	159.900
395.046	168.600
395.068	168.000
395.091	181.000
395.113	183.400
395.136	163.800
395.158	163.600
395.180	166.300
395.203	154.700
395.225	162.100
395.247	147.300
395.270	150.600
395.292	143.300
395.315	147.600
395.337	129.600
395.359	131.500
395.382	146.300
395.404	131.800
395.427	156.100
395.449	117.800
395.471	149.600
395.494	132.900
395.516	134.600
395.538	125.700
395.561	130.400
395.583	150.500
395.606	125.400
395.628	129.700
395.650	132.700
395.673	140.800
395.695	138.100
395.717	129.500
395.740	124.400
395.762	133.000
395.785	131.800
395.807	140.300
395.829	128.800
395.852	139.700
395.874	125.800
395.896	133.000
395.919	147.800
395.941	124.300
395.964	136.900
395.986	130.100
396.008	126.600
396.031	140.900
396.053	119.500
396.075	134.900
396.098	123.200
396.120	139.000
396.143	125.300
396.165	140.500
396.187	133.700
396.210	137.700
396.232	133.300
396.255	143.200
396.277	136.500
396.299	130.700
396.322	134.200
396.344	144.000
396.366	136.700
396.389	133.800
396.411	129.300
396.434	129.500
396.456	146.900
396.478	135.500
396.501	134.400
396.523	148.800
396.545	136.000
396.568	125.300
396.590	137.300
396.613	136.200
396.635	138.000
396.657	145.900
396.680	139.700
396.702	142.700
396.724	152.200
396.747	122.100
396.769	147.100
396.792	143.900
396.814	151.600
396.836	137.800
396.859	147.300
396.881	146.300
396.903	151.600
396.926	140.000
396.948	140.100
396.971	156.900
396.993	150.400
397.015	149.200
397.038	168.400
397.060	163.800
397.082	169.500
397.105	157.300
397.127	170.300
397.150	175.500
397.172	178.800
397.194	170.300
397.217	176.800
397.239	169.600
397.262	207.700
397.284	225.100
397.306	322.700
397.329	478.800
397.351	668.500
397.373	851.200
397.396	1140.600
397.418	1286.400
397.441	1381.400
397.463	1528.900
397.485	1518.700
397.508	1603.800
397.530	1608.700
397.552	1664.500
397.575	1743.100
397.597	1742.100
397.620	1769.000
397.642	1897.900
397.664	1928.100
397.687	1848.000
397.709	1863.500
397.731	2043.900
397.754	2003.900
397.776	1857.600
397.799	1964.900
397.821	2279.200
397.843	2405.300
397.866	2741.800
397.888	3303.000
397.910	4718.800
397.933	6801.000
397.955	62.600
397.978	0.000
398.000	0.000
398.022	0.000
398.045	0.000
398.067	0.000
398.090	-120.500
398.112	317.800
398.134	1679.600
398.157	1015.200
398.179	859.400
398.201	899.800
398.224	1369.600
398.246	1061.000
398.269	-1354.300
398.291	-1349.800
398.313	897.400
398.336	2507.800
398.358	7244.700
398.380	-3247.000
398.403	-4733.900
398.425	-234.800
398.448	320.600
398.470	375.600
398.492	340.400
398.515	299.800
398.537	324.600
398.559	329.600
398.582	304.300
398.604	280.200
398.627	225.200
398.649	139.600
398.671	-9.400
398.694	86.500
398.716	147.800
398.738	99.400
398.761	77.100
398.783	77.400
398.806	93.500
398.828	114.800
398.850	93.000
398.873	70.900
398.895	45.400
398.918	69.200
398.940	155.800
398.962	331.600
398.985	206.300
399.007	76.100
399.029	66.500
399.052	70.000
399.074	110.000
399.097	128.800
399.119	79.200
399.141	61.200
399.164	70.900
399.186	160.400
399.208	450.400
399.231	349.200
399.253	91.300
399.276	53.400
399.298	59.500
399.320	123.300
399.343	218.100
399.365	115.500
399.387	51.600
399.410	73.700
399.432	242.400
399.455	1100.100
399.477	1064.200
399.499	211.700
399.522	60.300
399.544	53.900
399.566	136.900
399.589	294.200
399.611	149.900
399.634	55.500
399.656	63.600
399.678	158.100
399.701	835.400
399.723	1080.000
399.745	257.200
399.768	55.600
399.790	55.900
399.813	130.200
399.835	335.100
399.857	213.600
399.880	63.000
399.902	46.100
399.925	105.600
399.947	518.900
399.969	839.200
399.992	247.000
400.014	50.900
400.036	29.400
400.059	58.700
400.081	153.600
400.104	134.300
400.126	48.800
400.148	39.200
400.171	61.800
400.193	281.800
400.215	610.000
400.238	257.200
400.260	52.600
400.283	38.400
400.305	42.600
400.327	117.400
400.350	111.600
400.372	46.700
400.394	30.500
400.417	34.600
400.439	121.100
400.462	281.200
400.484	161.600
400.506	44.400
400.529	28.300
400.551	40.700
400.573	56.600
400.596	73.400
400.618	37.100
400.641	45.100
400.663	46.000
400.685	77.500
400.708	165.400
400.730	137.100
400.753	61.300
400.775	49.800
400.797	55.600
400.820	89.400
400.842	104.600
400.864	72.800
400.887	67.700
400.909	68.200
400.932	91.300
400.954	161.100
400.976	144.500
400.999	91.600
401.021	72.500
401.043	87.900
401.066	81.700
401.088	118.500
401.111	93.100
401.133	74.700
401.155	92.400
401.178	105.200
401.200	129.100
401.222	138.600
401.245	98.800
401.267	86.600
401.290	114.900
401.312	178.000
401.334	340.200
401.357	275.900
401.379	146.900
401.401	383.700
401.424	1641.800
401.446	4186.400
401.469	5462.400
401.491	2013.200
401.513	253.600
401.536	177.600
401.558	486.900
401.581	1135.100
401.603	1015.900
401.625	233.100
401.648	79.900
401.670	84.800
401.692	114.000
401.715	167.900
401.737	115.200
401.760	49.500
401.782	36.700
401.804	72.200
401.827	135.500
401.849	158.900
401.871	60.900
401.894	24.900
401.916	23.900
401.939	31.700
401.961	46.200
401.983	34.600
402.006	19.200
402.028	17.700
402.050	37.400
402.073	74.700
402.095	99.700
402.118	44.600
402.140	14.100
402.162	15.200
402.185	26.300
402.207	47.500
402.229	44.100
402.252	15.200
402.274	10.400
402.297	14.600
402.319	17.700
402.341	18.900
402.364	15.800
402.386	8.500
402.408	16.400
402.431	38.000
402.453	69.800
402.476	92.900
402.498	36.900
402.520	8.600
402.543	7.900
402.565	8.600
402.588	9.800
402.610	10.200
402.632	10.300
402.655	18.800
402.677	46.200
402.699	110.300
402.722	149.400
402.744	72.000
402.767	15.400
402.789	9.400
402.811	11.800
402.834	14.700
402.856	11.200
402.878	11.300
402.901	19.100
402.923	60.500
402.946	159.900
402.968	272.400
402.990	160.000
403.013	28.900
403.035	12.300
403.057	12.200
403.080	15.300
403.102	16.500
403.125	13.600
403.147	16.500
403.169	60.000
403.192	162.400
403.214	327.200
403.236	238.500
403.259	49.500
403.281	11.900
403.304	12.600
403.326	15.000
403.348	16.200
403.371	16.100
403.393	16.700
403.415	54.900
403.438	150.500
403.460	319.600
403.483	299.600
403.505	69.900
403.527	15.800
403.550	12.400
403.572	18.500
403.595	18.800
403.617	14.300
403.639	11.000
403.662	34.400
403.684	102.800
403.706	253.200
403.729	290.300
403.751	85.800
403.774	14.100
403.796	7.800
403.818	11.300
403.841	14.200
403.863	13.000
403.885	8.500
403.908	18.400
403.930	46.000
403.953	116.200
403.975	163.600
403.997	61.100
404.020	13.100
404.042	8.600
404.064	8.600
404.087	7.600
404.109	8.400
404.132	6.300
404.154	5.100
404.176	16.600
404.199	37.000
404.221	59.500
404.243	29.700
404.266	7.600
404.288	3.600
404.311	6.600
404.333	7.400
404.355	8.100
404.378	7.000
404.400	4.100
404.423	4.800
404.445	9.700
404.467	15.200
404.490	10.800
404.512	1.100
404.534	5.500
404.557	2.600
404.579	3.900
404.602	4.100
404.624	4.600
404.646	2.700
404.669	2.100
404.691	7.100
404.713	4.700
404.736	7.400
404.758	1.900
404.781	3.800
404.803	2.700
404.825	5.800
404.848	3.700
404.870	3.100
404.892	4.500
404.915	6.500
404.937	5.400
404.960	-2.300
404.982	3.400
405.004	2.200
405.027	6.800
405.049	5.100
405.072	6.300
405.094	4.100
405.116	5.100
405.139	3.400
405.161	6.100
405.183	1.700
405.206	5.200
405.228	3.500
405.251	1.000
405.273	7.900
405.295	4.800
405.318	1.200
405.340	3.500
405.362	3.100
405.385	4.200
405.407	3.200
405.430	5.100
405.452	4.600
405.474	5.800
405.497	2.100
405.519	4.100
405.541	2.300
405.564	3.400
405.586	5.100
405.609	4.100
405.631	3.500
405.653	5.300
405.676	2.600
405.698	0.800
405.720	3.300
405.743	4.900
405.765	2.000
405.788	2.700
405.810	2.100
405.832	3.000
405.855	4.700
405.877	0.500
405.899	2.200
405.922	1.600
405.944	1.700
405.967	3.700
405.989	2.700
406.011	4.100
406.034	2.000
406.056	4.700
406.078	3.400
406.101	2.500
406.123	4.300
406.146	2.700
406.168	1.900
406.190	3.800
406.213	5.100
406.235	4.600
406.258	3.100
406.280	2.000
406.302	2.400
406.325	4.200
406.347	3.300
406.369	3.100
406.392	1.900
406.414	2.900
406.437	3.200
406.459	1.300
406.481	4.200
406.504	1.900
406.526	3.600
406.548	2.300
406.571	3.300
406.593	4.100
406.616	4.500
406.638	2.700
406.660	2.000
406.683	4.200
406.705	2.600
406.727	3.900
406.750	4.300
406.772	2.000
406.795	3.600
406.817	4.100
406.839	3.300
406.862	2.500
406.884	2.000
406.906	3.400
406.929	2.900
406.951	2.100
406.974	3.700
406.996	3.400
407.018	0.400
407.041	2.600
407.063	2.200
407.086	1.100
407.108	3.900
407.130	3.800
407.153	1.200
407.175	2.300
407.197	4.800
407.220	2.100
407.242	5.100
407.265	4.100
407.287	3.300
407.309	0.600
407.332	2.800
407.354	2.300
407.376	0.700
407.399	4.100
407.421	3.100
407.444	1.400
407.466	0.900
407.488	1.200
407.511	2.700
407.533	1.800
407.555	5.600
407.578	1.800
407.600	2.900
407.623	0.200
407.645	1.000
407.667	-0.300
407.690	3.800
407.712	0.400
407.734	4.100
407.757	2.900
407.779	2.000
407.802	-1.400
407.824	1.400
407.846	2.900
407.869	1.300
407.891	1.000
407.914	2.400
407.936	3.400
407.958	1.700
407.981	1.000
408.003	2.100
408.025	2.800
408.048	3.000
408.070	3.800
408.093	1.500
408.115	0.900
408.137	3.700
408.160	3.000
408.182	-0.200
408.204	0.700
408.227	1.600
408.249	0.500
408.272	1.700
408.294	1.800
408.316	2.600
408.339	2.500
408.361	2.900
408.383	1.700
408.406	1.800
408.428	1.100
408.451	2.000
408.473	4.400
408.495	2.200
408.518	3.200
408.540	0.500
408.562	1.600
408.585	1.000
408.607	3.000
408.630	2.500
408.652	2.300
408.674	1.700
408.697	1.000
408.719	-0.300
408.741	2.600
408.764	1.700
408.786	2.000
408.809	1.500
408.831	3.400
408.853	1.900
408.876	-1.200
408.898	0.600
408.921	2.200
408.943	0.900
408.965	4.000
408.988	4.000
409.010	4.200
409.032	1.500
409.055	1.700
409.077	1.400
409.100	3.600
409.122	3.000
409.144	1.300
409.167	1.400
409.189	2.000
409.211	1.800
409.234	-0.300
409.256	1.700
409.279	3.400
409.301	1.600
409.323	1.600
409.346	0.300
409.368	0.800
409.390	2.000
409.413	2.700
409.435	1.300
