386.542	-7.000
386.565	-3.500
386.587	-2.900
386.610	-7.000
386.632	-4.600
386.654	-3.400
386.677	-6.000
386.699	-8.200
386.721	-4.800
386.744	-4.700
386.766	-2.100
386.789	-7.400
386.811	-3.800
386.833	-7.100
386.856	-6.500
386.878	-6.200
386.900	-5.800
386.923	-4.600
386.945	-7.600
386.968	-5.400
386.990	-1.100
387.012	-7.200
387.035	-5.400
387.057	-4.800
387.079	-5.500
387.102	-3.900
387.124	-4.300
387.147	-6.300
387.169	-5.300
387.191	-2.800
387.214	-2.300
387.236	-1.800
387.259	-3.400
387.281	-7.300
387.303	-5.700
387.326	-5.400
387.348	-7.100
387.370	-3.700
387.393	-3.500
387.415	-4.900
387.438	-1.900
387.460	-5.100
387.482	-4.500
387.505	-3.400
387.527	-7.900
387.549	-4.200
387.572	-2.600
387.594	-5.800
387.617	-6.300
387.639	-4.800
387.661	-1.700
387.684	-4.400
387.706	-5.300
387.728	-4.800
387.751	-3.200
387.773	-2.800
387.796	-2.400
387.818	-5.400
387.840	-2.900
387.863	-4.900
387.885	-3.800
387.907	-5.500
387.930	-5.700
387.952	-6.100
387.975	-6.200
387.997	-3.800
388.019	-6.000
388.042	-2.200
388.064	-2.300
388.086	-2.100
388.109	-2.700
388.131	-2.700
388.154	-5.000
388.176	-4.600
388.198	-3.200
388.221	-3.200
388.243	-1.000
388.266	0.300
388.288	-3.000
388.310	-2.200
388.333	-3.400
388.355	-2.600
388.377	-2.500
388.400	-4.100
388.422	-1.600
388.445	-0.800
388.467	-3.500
388.489	-2.800
388.512	-3.900
388.534	-2.800
388.556	0.000
388.579	-1.300
388.601	-4.500
388.624	-0.400
388.646	-0.400
388.668	-0.500
388.691	-4.100
388.713	0.000
388.735	-2.200
388.758	-3.800
388.780	-0.800
388.803	-1.700
388.825	2.600
388.847	-1.600
388.870	-1.300
388.892	-0.200
388.914	-1.000
388.937	0.000
388.959	-0.700
388.982	2.300
389.004	-0.700
389.026	0.300
389.049	1.100
389.071	2.100
389.094	0.200
389.116	-1.600
389.138	3.100
389.161	1.100
389.183	2.300
389.205	0.400
389.228	0.100
389.250	2.300
389.273	-0.600
389.295	1.500
389.317	0.900
389.340	2.400
389.362	-0.100
389.384	5.200
389.407	7.600
389.429	2.100
389.452	4.300
389.474	7.900
389.496	3.600
389.519	6.400
389.541	5.600
389.563	4.500
389.586	5.200
389.608	3.800
389.631	6.100
389.653	3.200
389.675	4.600
389.698	4.400
389.720	5.400
389.742	7.500
389.765	8.500
389.787	8.800
389.810	5.400
389.832	7.900
389.854	6.500
389.877	8.400
389.899	10.000
389.922	9.100
389.944	8.800
389.966	8.800
389.989	11.500
390.011	12.200
390.033	11.000
390.056	11.100
390.078	12.900
390.101	11.700
390.123	11.800
390.145	12.400
390.168	16.300
390.190	11.300
390.212	12.800
390.235	15.800
390.257	11.100
390.280	14.900
390.302	15.700
390.324	12.200
390.347	17.400
390.369	18.400
390.391	17.200
390.414	16.000
390.436	15.200
390.459	20.300
390.481	22.800
390.503	13.400
390.526	17.200
390.548	20.900
390.570	19.200
390.593	18.300
390.615	18.900
390.638	18.600
390.660	21.600
390.682	25.000
390.705	19.600
390.727	23.900
390.749	23.000
390.772	28.700
390.794	22.700
390.817	25.100
390.839	23.400
390.861	32.800
390.884	23.300
390.906	26.500
390.928	29.300
390.951	24.700
390.973	32.000
390.996	30.100
391.018	31.900
391.040	29.300
391.063	28.900
391.085	28.700
391.108	32.600
391.130	31.800
391.152	35.700
391.175	33.500
391.197	34.200
391.219	34.700
391.242	31.900
391.264	34.900
391.287	37.600
391.309	36.500
391.331	39.100
391.354	37.000
391.376	37.800
391.398	34.500
391.421	45.200
391.443	34.400
391.466	42.100
391.488	36.300
391.510	40.400
391.533	42.400
391.555	41.600
391.577	44.600
391.600	38.200
391.622	41.300
391.645	41.600
391.667	41.700
391.689	40.800
391.712	45.200
391.734	43.800
391.757	54.600
391.779	41.400
391.801	49.400
391.824	49.900
391.846	51.800
391.868	54.700
391.891	44.600
391.913	53.700
391.936	44.800
391.958	51.500
391.980	50.500
392.003	55.900
392.025	47.300
392.047	53.700
392.070	50.300
392.092	57.600
392.115	54.500
392.137	54.800
392.159	56.200
392.182	57.400
392.204	52.800
392.226	63.200
392.249	51.500
392.271	53.000
392.294	58.000
392.316	52.500
392.338	58.100
392.361	63.700
392.383	60.700
392.405	55.700
392.428	59.700
392.450	63.000
392.473	65.400
392.495	64.100
392.517	61.000
392.540	60.800
392.562	73.400
392.585	59.600
392.607	62.300
392.629	68.700
392.652	71.100
392.674	65.900
392.696	79.600
392.719	52.200
392.741	68.800
392.764	65.900
392.786	71.400
392.808	65.300
392.831	69.700
392.853	75.000
392.875	67.500
392.898	62.500
392.920	74.900
392.943	66.500
392.965	74.600
392.987	75.100
393.010	68.700
393.032	63.800
393.054	77.500
393.077	75.900
393.099	68.000
393.122	76.100
393.144	76.500
393.166	75.600
393.189	75.300
393.211	73.900
393.233	76.900
393.256	74.600
393.278	81.600
393.301	72.500
393.323	75.300
393.345	83.900
393.368	65.300
393.390	80.800
393.412	81.700
393.435	87.200
393.457	74.600
393.480	85.600
393.502	80.400
393.524	81.700
393.547	73.400
393.569	90.000
393.592	81.000
393.614	89.200
393.636	84.200
393.659	89.400
393.681	83.700
393.703	82.500
393.726	89.800
393.748	87.200
393.771	88.200
393.793	86.400
393.815	83.800
393.838	104.000
393.860	83.800
393.882	94.900
393.905	87.000
393.927	96.300
393.950	88.500
393.972	105.000
393.994	88.800
394.017	85.600
394.039	98.900
394.061	92.500
394.084	98.100
394.106	103.500
394.129	95.600
394.151	100.600
394.173	100.400
394.196	97.200
394.218	115.700
394.240	114.500
394.263	100.500
394.285	123.700
394.308	114.700
394.330	95.400
394.352	110.000
394.375	119.000
394.397	108.100
394.419	106.000
394.442	114.500
394.464	116.500
394.487	134.300
394.509	130.000
394.531	134.400
394.554	122.200
394.576	137.100
394.599	131.500
394.621	112.200
394.643	145.800
394.666	138.700
394.688	140.900
394.710	149.600
394.733	152.400
394.755	142.700
394.778	144.300
394.800	153.400
394.822	149.200
394.845	122.700
394.867	151.000
394.889	147.700
394.912	155.200
394.934	146.100
394.957	135.400
394.979	157.300
395.001	152.400
395.024	138.600
395.046	143.200
395.068	143.100
395.091	157.400
395.113	159.200
395.136	138.900
395.158	140.000
395.180	144.500
395.203	132.800
395.225	135.500
395.247	127.500
395.270	128.100
395.292	119.200
395.315	128.700
395.337	111.900
395.359	118.400
395.382	130.300
395.404	116.600
395.427	146.200
395.449	106.600
395.471	135.800
395.494	121.100
395.516	121.400
395.538	113.900
395.561	115.900
395.583	139.500
395.606	114.900
395.628	117.000
395.650	123.600
395.673	132.600
395.695	125.100
395.717	117.900
395.740	114.200
395.762	124.800
395.785	123.700
395.807	132.900
395.829	122.900
395.852	131.500
395.874	119.700
395.896	131.300
395.919	137.400
395.941	114.800
395.964	128.600
395.986	122.800
396.008	117.500
396.031	129.700
396.053	116.400
396.075	128.000
396.098	115.400
396.120	128.300
396.143	117.500
396.165	132.900
396.187	127.800
396.210	132.200
396.232	130.700
396.255	133.400
396.277	128.100
396.299	120.700
396.322	132.100
396.344	133.400
396.366	131.200
396.389	122.300
396.411	120.700
396.434	123.400
396.456	137.800
396.478	125.700
396.501	127.200
396.523	141.700
396.545	126.400
396.568	117.900
396.590	131.200
396.613	127.300
396.635	131.300
396.657	137.100
396.680	127.800
396.702	133.000
396.724	146.000
396.747	112.600
396.769	135.200
396.792	138.200
396.814	136.900
396.836	125.400
396.859	135.800
396.881	134.100
396.903	137.600
396.926	126.400
396.948	130.200
396.971	139.700
396.993	138.900
397.015	138.600
397.038	156.800
397.060	145.300
397.082	155.500
397.105	145.000
397.127	152.600
397.150	158.300
397.172	160.600
397.194	156.200
397.217	161.200
397.239	145.100
397.262	187.400
397.284	204.100
397.306	310.200
397.329	482.200
397.351	669.200
397.373	828.200
397.396	1040.800
397.418	1113.400
397.441	1176.200
397.463	1242.500
397.485	1155.900
397.508	1207.700
397.530	1220.100
397.552	1250.300
397.575	1322.800
397.597	1346.000
397.620	1350.000
397.642	1477.400
397.664	1513.200
397.687	1438.200
397.709	1428.800
397.731	1607.800
397.754	1558.400
397.776	1402.400
397.799	1585.100
397.821	1952.200
397.843	2076.800
397.866	2378.200
397.888	2929.600
397.910	4409.400
397.933	6759.000
397.955	68.700
397.978	0.000
398.000	0.000
398.022	0.000
398.045	0.000
398.067	0.000
398.090	-1185.000
398.112	-1076.900
398.134	878.500
398.157	127.900
398.179	141.200
398.201	310.000
398.224	986.100
398.246	637.400
398.269	-1982.800
398.291	-2498.600
398.313	172.800
398.336	2567.200
398.358	7546.300
398.380	-6135.000
398.403	-6797.500
398.425	-602.800
398.448	167.700
398.470	264.300
398.492	230.000
398.515	189.100
398.537	230.200
398.559	217.300
398.582	216.700
398.604	185.500
398.627	136.000
398.649	59.100
398.671	-80.800
398.694	46.200
398.716	106.000
398.738	69.400
398.761	54.700
398.783	61.500
398.806	70.200
398.828	84.300
398.850	68.100
398.873	49.800
398.895	32.800
398.918	48.900
398.940	118.100
398.962	222.500
398.985	132.900
399.007	56.800
399.029	49.500
399.052	58.500
399.074	81.600
399.097	86.300
399.119	52.000
399.141	43.500
399.164	59.200
399.186	120.900
399.208	284.600
399.231	212.000
399.253	62.000
399.276	38.300
399.298	47.500
399.320	88.200
399.343	141.500
399.365	76.000
399.387	39.100
399.410	62.500
399.432	191.400
399.455	802.100
399.477	695.200
399.499	135.100
399.522	42.900
399.544	42.900
399.566	105.900
399.589	218.800
399.611	97.500
399.634	42.800
399.656	54.600
399.678	125.900
399.701	622.700
399.723	737.100
399.745	165.400
399.768	37.200
399.790	45.200
399.813	106.700
399.835	256.000
399.857	155.200
399.880	47.900
399.902	38.400
399.925	88.700
399.947	430.400
399.969	639.900
399.992	170.700
400.014	38.600
400.036	25.100
400.059	51.700
400.081	126.000
400.104	102.600
400.126	39.200
400.148	33.400
400.171	53.900
400.193	247.600
400.215	485.700
400.238	187.900
400.260	42.000
400.283	33.500
400.305	41.100
400.327	103.500
400.350	89.400
400.372	43.300
400.394	27.100
400.417	31.800
400.439	111.200
400.462	243.200
400.484	133.500
400.506	39.200
400.529	28.500
400.551	35.300
400.573	49.400
400.596	62.800
400.618	34.700
400.641	41.200
400.663	40.000
400.685	71.600
400.708	154.200
400.730	116.500
400.753	54.000
400.775	47.500
400.797	48.400
400.820	84.200
400.842	89.600
400.864	60.200
400.887	53.700
400.909	60.800
400.932	86.300
400.954	158.700
400.976	129.600
400.999	79.100
401.021	58.100
401.043	76.000
401.066	63.000
401.088	97.900
401.111	77.700
401.133	61.500
401.155	79.100
401.178	87.000
401.200	107.700
401.222	116.200
401.245	80.900
401.267	72.500
401.290	96.100
401.312	128.600
401.334	229.100
401.357	182.800
401.379	128.300
401.401	449.300
401.424	1897.600
401.446	4566.100
401.469	5383.300
401.491	1781.400
401.513	207.800
401.536	162.400
401.558	431.300
401.581	927.500
401.603	753.400
401.625	168.900
401.648	71.900
401.670	109.600
401.692	202.400
401.715	337.700
401.737	198.700
401.760	53.800
401.782	33.400
401.804	63.200
401.827	111.200
401.849	120.700
401.871	44.900
401.894	17.000
401.916	22.700
401.939	33.300
401.961	48.700
401.983	30.700
402.006	18.200
402.028	16.900
402.050	33.800
402.073	64.000
402.095	79.700
402.118	33.600
402.140	10.300
402.162	12.100
402.185	15.800
402.207	22.700
402.229	19.600
402.252	8.600
402.274	9.000
402.297	12.100
402.319	15.300
402.341	16.400
402.364	14.800
402.386	6.900
402.408	13.200
402.431	23.100
402.453	35.000
402.476	46.400
402.498	19.400
402.520	7.500
402.543	5.800
402.565	8.500
402.588	8.100
402.610	9.300
402.632	9.200
402.655	15.600
402.677	30.800
402.699	65.400
402.722	78.900
402.744	37.600
402.767	9.100
402.789	6.800
402.811	9.500
402.834	14.200
402.856	11.000
402.878	8.800
402.901	15.200
402.923	43.300
402.946	99.800
402.968	153.100
402.990	83.300
403.013	17.200
403.035	10.500
403.057	11.700
403.080	15.500
403.102	17.600
403.125	12.000
403.147	12.800
403.169	46.200
403.192	114.300
403.214	203.000
403.236	134.300
403.259	29.700
403.281	9.800
403.304	12.900
403.326	15.700
403.348	17.500
403.371	14.700
403.393	14.000
403.415	47.100
403.438	113.200
403.460	213.700
403.483	185.300
403.505	40.700
403.527	11.500
403.550	12.800
403.572	20.100
403.595	18.600
403.617	13.800
403.639	9.700
403.662	30.600
403.684	84.200
403.706	186.100
403.729	196.800
403.751	54.900
403.774	11.000
403.796	6.300
403.818	11.300
403.841	15.800
403.863	13.000
403.885	8.700
403.908	18.900
403.930	40.500
403.953	91.500
403.975	119.200
403.997	41.700
404.020	9.300
404.042	8.000
404.064	8.400
404.087	8.600
404.109	8.100
404.132	5.400
404.154	5.600
404.176	16.000
404.199	30.700
404.221	44.600
404.243	23.400
404.266	7.500
404.288	3.100
404.311	7.300
404.333	7.300
404.355	7.900
404.378	6.100
404.400	4.600
404.423	5.700
404.445	10.600
404.467	13.300
404.490	9.000
404.512	0.800
404.534	4.000
404.557	4.200
404.579	2.700
404.602	4.000
404.624	5.400
404.646	1.600
404.669	3.400
404.691	4.600
404.713	5.100
404.736	5.400
404.758	1.400
404.781	3.600
404.803	2.600
404.825	5.200
404.848	4.800
404.870	2.200
404.892	5.200
404.915	7.000
404.937	4.300
404.960	-2.700
404.982	3.700
405.004	2.800
405.027	6.100
405.049	5.000
405.072	6.900
405.094	4.300
405.116	5.200
405.139	4.700
405.161	4.000
405.183	1.100
405.206	3.500
405.228	4.500
405.251	0.100
405.273	8.500
405.295	3.900
405.318	2.500
405.340	5.400
405.362	2.700
405.385	2.600
405.407	1.400
405.430	3.300
405.452	4.200
405.474	5.500
405.497	1.000
405.519	4.800
405.541	2.500
405.564	2.300
405.586	5.100
405.609	3.800
405.631	3.500
405.653	4.000
405.676	2.600
405.698	-0.700
405.720	3.000
405.743	4.600
405.765	1.500
405.788	3.100
405.810	2.900
405.832	2.900
405.855	4.500
405.877	1.200
405.899	1.600
405.922	2.900
405.944	3.200
405.967	3.800
405.989	2.200
406.011	3.000
406.034	1.400
406.056	3.800
406.078	3.100
406.101	2.600
406.123	4.500
406.146	2.600
406.168	1.400
406.190	4.400
406.213	5.300
406.235	3.800
406.258	2.200
406.280	1.400
406.302	1.400
406.325	2.400
406.347	2.900
406.369	3.000
406.392	2.300
406.414	2.900
406.437	3.300
406.459	0.800
406.481	4.300
406.504	2.900
406.526	3.600
406.548	2.000
406.571	3.200
406.593	3.900
406.616	3.800
406.638	1.600
406.660	2.000
406.683	4.200
406.705	2.000
406.727	3.900
406.750	3.900
406.772	2.200
406.795	3.500
406.817	3.100
406.839	2.400
406.862	2.400
406.884	2.600
406.906	3.400
406.929	2.800
406.951	2.200
406.974	3.400
406.996	4.000
407.018	0.400
407.041	1.800
407.063	2.500
407.086	1.800
407.108	4.200
407.130	4.500
407.153	1.700
407.175	1.900
407.197	4.000
407.220	1.300
407.242	4.600
407.265	3.900
407.287	2.600
407.309	0.900
407.332	3.800
407.354	2.200
407.376	1.200
407.399	4.700
407.421	2.700
407.444	1.000
407.466	1.200
407.488	1.300
407.511	2.100
407.533	2.600
407.555	5.600
407.578	2.900
407.600	4.100
407.623	0.700
407.645	0.200
407.667	0.200
407.690	3.900
407.712	0.500
407.734	4.100
407.757	3.600
407.779	1.700
407.802	-1.500
407.824	1.300
407.846	2.300
407.869	1.600
407.891	2.400
407.914	2.400
407.936	2.600
407.958	1.600
407.981	1.100
408.003	2.000
408.025	2.400
408.048	2.500
408.070	3.600
408.093	1.200
408.115	1.100
408.137	2.800
408.160	2.500
408.182	-0.200
408.204	0.400
408.227	2.500
408.249	0.500
408.272	2.500
408.294	1.600
408.316	3.700
408.339	2.300
408.361	2.500
408.383	2.900
408.406	1.100
408.428	1.300
408.451	1.900
408.473	5.000
408.495	1.100
408.518	3.100
408.540	-0.400
408.562	0.900
408.585	0.300
408.607	3.500
408.630	2.100
408.652	2.900
408.674	1.100
408.697	1.400
408.719	-0.600
408.741	2.600
408.764	1.300
408.786	2.000
408.809	1.900
408.831	3.500
408.853	2.500
408.876	-1.500
408.898	1.300
408.921	1.700
408.943	0.700
408.965	3.900
408.988	4.300
409.010	3.600
409.032	0.400
409.055	2.400
409.077	1.100
409.100	3.800
409.122	2.400
409.144	2.200
409.167	1.900
409.189	2.800
409.211	1.600
409.234	-0.700
409.256	1.500
409.279	3.700
409.301	1.500
409.323	2.500
409.346	-0.200
409.368	1.700
409.390	3.000
409.413	2.100
409.435	1.300
